0.0004	0.54526910.0009	0.54313060.0014	0.5402390.0019	0.53668680.0023	0.5325670.0028	0.52797230.0033	0.52299550.0038	0.51772930.0043	0.51226660.0047	0.50669090.0052	0.50103410.0057	0.49530990.0062	0.48953190.0067	0.48371370.0071	0.47786890.0076	0.47201110.0081	0.46615390.0086	0.46031110.0091	0.45449420.0095	0.44870220.01	0.44292870.0105	0.43716740.011	0.43141170.0115	0.42565540.0119	0.41989190.0124	0.41411490.0129	0.4083180.0134	0.4024960.0139	0.39665560.0143	0.39080860.0148	0.38496710.0153	0.37914310.0158	0.37334850.0163	0.36759560.0167	0.36189610.0172	0.35626230.0177	0.35070280.0182	0.34519450.0187	0.3396960.0191	0.33416550.0196	0.32856140.0201	0.3228420.0206	0.31696560.0211	0.31089040.0215	0.3045750.022	0.29798660.0225	0.29120430.023	0.28438140.0235	0.27767260.0239	0.27123250.0244	0.26521610.0249	0.25977780.0254	0.25507250.0259	0.25125480.0263	0.24846860.0268	0.24669150.0273	0.24577240.0278	0.24555660.0283	0.24588940.0287	0.24661620.0292	0.24758230.0297	0.24863310.0302	0.24961390.0307	0.25037510.0311	0.25086590.0316	0.25112440.0321	0.2511920.0326	0.25111030.0331	0.25092050.0335	0.25066420.034	0.25038280.0345	0.25011760.035	0.24990910.0355	0.24977340.0359	0.24970050.0364	0.24967940.0369	0.24969910.0374	0.24974850.0379	0.24981650.0383	0.24989210.0388	0.24996430.0393	0.25002220.0398	0.25006080.0403	0.25008240.0407	0.25008990.0412	0.25008610.0417	0.25007370.0422	0.25005540.0427	0.25003420.0431	0.25001260.0436	0.24999350.0441	0.24997860.0446	0.24996790.0451	0.24996130.0456	0.24995890.046	0.24996040.0465	0.24996590.047	0.24997540.0475	0.24998860.048	0.25000570.0484	0.25002560.0489	0.2500460.0494	0.25006420.0499	0.25007770.0504	0.2500840.0508	0.25008060.0513	0.25006490.0518	0.25003430.0523	0.24998630.0528	0.24992250.0532	0.24985220.0537	0.24978560.0542	0.2497330.0547	0.24970460.0552	0.24971070.0556	0.24976160.0561	0.24986750.0566	0.25003850.0571	0.25027140.0576	0.25053190.058	0.25078160.0585	0.25098210.059	0.2510950.0595	0.25108170.06	0.25090380.0604	0.2505230.0609	0.24990070.0614	0.24900840.0619	0.24784460.0624	0.24641180.0628	0.24471270.0633	0.24275010.0638	0.24052670.0643	0.23804520.0648	0.23530820.0652	0.23231850.0657	0.22908390.0662	0.22562890.0667	0.22198110.0672	0.21816810.0676	0.21421750.0681	0.21015690.0686	0.20601410.0691	0.20181650.0696	0.19759190.07	0.19336790.0705	0.1891720.071	0.1850320.0715	0.18097530.072	0.17702970.0724	0.17322260.0729	0.16958170.0734	0.16613470.0739	0.1629090.0744	0.15992870.0748	0.15720120.0753	0.15472910.0758	0.15251540.0763	0.15056280.0768	0.1488740.0772	0.14745190.0777	0.14629930.0782	0.14541880.0787	0.14480830.0792	0.14443790.0796	0.14426910.0801	0.14426310.0806	0.14438120.0811	0.14458450.0816	0.14483450.082	0.14509230.0825	0.14531920.083	0.14548160.0835	0.14557810.084	0.14561990.0844	0.14561830.0849	0.14558470.0854	0.14553040.0859	0.14546670.0864	0.14540490.0868	0.14535630.0873	0.14533080.0878	0.14532710.0883	0.14533860.0888	0.14535880.0892	0.14538130.0897	0.14539940.0902	0.14540670.0907	0.14539670.0912	0.14536290.0916	0.14530.0921	0.14521590.0926	0.14512520.0931	0.14504270.0936	0.14498310.094	0.14496130.0945	0.1449920.095	0.14508990.0955	0.14526990.096	0.14554320.0965	0.14588230.0969	0.14623510.0974	0.14654910.0979	0.14677160.0984	0.14685020.0989	0.14673240.0993	0.14636540.0998	0.1456970.1003	0.14467850.1008	0.14332040.1013	0.14167610.1017	0.13980030.1022	0.13774760.1027	0.13557240.1032	0.13332950.1037	0.13107330.1041	0.12885840.1046	0.12673710.1051	0.12472080.1056	0.12278560.1061	0.12090670.1065	0.11905920.107	0.1172180.1075	0.11535820.108	0.1134550.1085	0.11148340.1089	0.10941990.1094	0.10727470.1099	0.10509150.1104	0.10291530.1109	0.10079140.1113	9.88E-020.1118	9.69E-020.1123	9.52E-020.1128	9.37E-020.1133	9.25E-020.1137	9.16E-020.1142	9.10E-020.1147	9.07E-020.1152	9.06E-020.1157	9.07E-020.1161	9.11E-020.1166	9.17E-020.1171	0.09246090.1176	9.34E-020.1181	9.45E-020.1185	9.58E-020.119	0.09735760.1195	9.91E-020.12	0.10105040.1205	0.10325720.1209	0.10572310.1214	0.10846230.1219	0.11148850.1224	0.11479510.1229	0.11834320.1233	0.12209120.1238	0.12599730.1243	0.13001980.1248	0.1341170.1253	0.13824720.1257	0.14236870.1262	0.146440.1267	0.15043720.1272	0.15436860.1277	0.1582460.1281	0.16208130.1286	0.16588640.1291	0.16967310.1296	0.17345320.1301	0.17723870.1305	0.18104120.131	0.18486770.1315	0.18871360.132	0.19257350.1325	0.19644160.1329	0.20031210.1334	0.20417950.1339	0.20803790.1344	0.21188180.1349	0.21570530.1353	0.21950710.1358	0.22329640.1363	0.22708420.1368	0.23088130.1373	0.23469880.1377	0.23854760.1382	0.24243860.1387	0.24638280.1392	0.25039110.1397	0.25446370.1401	0.25856850.1406	0.26266750.1411	0.26672250.1416	0.27069560.1421	0.27454860.1425	0.27824350.143	0.28174220.1435	0.28500660.144	0.28800590.1445	0.29073480.1449	0.2931940.1454	0.29538390.1459	0.2973050.1464	0.29895790.1469	0.3003430.1474	0.3014610.1478	0.30231230.1483	0.30290310.1488	0.3032630.1493	0.30342810.1498	0.30343430.1502	0.30331770.1507	0.30311430.1512	0.30285990.1517	0.30259070.1522	0.30234260.1526	0.30214640.1531	0.30200670.1536	0.30191980.1541	0.3018820.1546	0.30188970.155	0.30193940.1555	0.30202720.156	0.30214960.1565	0.30230290.157	0.30248160.1574	0.30266850.1579	0.30284230.1584	0.30298150.1589	0.30306480.1594	0.30307090.1598	0.30297820.1603	0.30276550.1608	0.30241140.1613	0.30189170.1618	0.30116330.1622	0.30017470.1627	0.2988740.1632	0.29720980.1637	0.29513040.1642	0.29258410.1646	0.28951940.1651	0.28588450.1656	0.28163770.1661	0.2768220.1666	0.27152410.167	0.26583120.1675	0.25983040.168	0.25360860.1685	0.24725310.169	0.24085090.1694	0.23448910.1699	0.22824920.1704	0.22215250.1709	0.21618450.1714	0.21033020.1718	0.20457440.1723	0.19890220.1728	0.19329840.1733	0.18774790.1738	0.18223570.1742	0.17674620.1747	0.17125740.1752	0.16574240.1757	0.16017450.1762	0.15452680.1766	0.14877250.1771	0.14288490.1776	0.13683710.1781	0.13060230.1786	0.1241540.179	0.11746990.1795	0.11053160.18	0.10332030.1805	9.58E-020.181	8.80E-020.1814	7.99E-020.1819	7.14E-020.1824	6.25E-020.1829	5.33E-020.1834	4.37E-020.1838	3.39E-020.1843	2.40E-020.1848	1.40E-020.1853	4.04E-030.1858	-5.72E-030.1862	-1.52E-020.1867	-2.43E-020.1872	-3.30E-020.1877	-4.11E-020.1882	-4.87E-020.1886	-5.56E-020.1891	-6.19E-020.1896	-6.75E-020.1901	-7.24E-020.1906	-7.65E-020.191	-7.98E-020.1915	-8.23E-020.192	-8.40E-020.1925	-8.49E-020.193	-0.08527410.1934	-8.51E-020.1939	-8.46E-020.1944	-0.08388340.1949	-0.08296280.1954	-8.20E-020.1958	-8.11E-020.1963	-8.03E-020.1968	-7.97E-020.1973	-7.93E-020.1978	-7.91E-020.1983	-7.91E-020.1987	-7.94E-020.1992	-7.99E-020.1997	-8.07E-020.2002	-8.17E-020.2007	-8.31E-020.2011	-8.47E-020.2016	-8.66E-020.2021	-8.86E-020.2026	-9.07E-020.2031	-9.29E-020.2035	-9.51E-020.204	-9.72E-020.2045	-9.93E-020.205	-0.10131110.2055	-0.10323140.2059	-0.10510.2064	-0.10694250.2069	-0.10878410.2074	-0.11065040.2079	-0.11256680.2083	-0.11455880.2088	-0.11665170.2093	-0.11884930.2098	-0.12110390.2103	-0.12336010.2107	-0.12556250.2112	-0.12765580.2117	-0.12958470.2122	-0.13129360.2127	-0.13272740.2131	-0.13383050.2136	-0.13457340.2141	-0.13499830.2146	-0.13516050.2151	-0.13511530.2155	-0.13491780.216	-0.13462310.2165	-0.13428670.217	-0.13396350.2175	-0.13370880.2179	-0.13356210.2184	-0.13350980.2189	-0.13352740.2194	-0.13359010.2199	-0.13367350.2203	-0.13375280.2208	-0.13380360.2213	-0.13380110.2218	-0.13372080.2223	-0.13354930.2227	-0.13331880.2232	-0.13307230.2237	-0.13285320.2242	-0.13270460.2247	-0.13266990.2251	-0.13279210.2256	-0.13311470.2261	-0.13368070.2266	-0.13452630.2271	-0.13565410.2275	-0.13705640.228	-0.13872590.2285	-0.1406550.229	-0.14283630.2295	-0.14526220.2299	-0.14792520.2304	-0.15081790.2309	-0.15391570.2314	-0.15709840.2319	-0.16021180.2323	-0.16310180.2328	-0.16561440.2333	-0.16759550.2338	-0.16889090.2343	-0.16934670.2347	-0.16880860.2352	-0.16716960.2357	-0.16463990.2362	-0.16156140.2367	-0.15827630.2371	-0.15512670.2376	-0.15245480.2381	-0.15060280.2386	-0.1499130.2391	-0.15072750.2395	-0.15329130.24	-0.15705880.2405	-0.16109970.241	-0.16448080.2415	-0.16626910.2419	-0.16553170.2424	-0.16133540.2429	-0.15274720.2434	-0.13883420.2439	-0.11877960.2443	-9.29E-020.2448	-6.22E-020.2453	-2.77E-020.2458	9.61E-030.2463	4.88E-020.2467	8.88E-020.2472	0.12863820.2477	0.16733230.2482	0.20394690.2487	0.23841560.2492	0.27124330.2496	0.30294530.2501	0.33403710.2506	0.36503270.2511	0.39644860.2516	0.42880.252	0.46260210.2525	0.49831910.253	0.53564180.2535	0.57366140.254	0.61145360.2544	0.64809370.2549	0.68265730.2554	0.714220.2559	0.74185720.2564	0.76464450.2568	0.78170220.2573	0.79301280.2578	0.79933710.2583	0.8014640.2588	0.80018210.2592	0.79628010.2597	0.79054680.2602	0.78377090.2607	0.77674120.2612	0.77022950.2616	0.76458380.2621	0.7597070.2626	0.75548090.2631	0.75178730.2636	0.7485080.264	0.74552490.2645	0.74271980.265	0.73997430.2655	0.73717150.266	0.73423030.2664	0.73111360.2669	0.72778710.2674	0.72421650.2679	0.72036730.2684	0.71620540.2688	0.71169630.2693	0.70680560.2698	0.70150150.2703	0.69586560.2708	0.69014080.2712	0.6845830.2717	0.67944750.2722	0.67498990.2727	0.67146590.2732	0.66913090.2736	0.66824040.2741	0.6690440.2746	0.67135210.2751	0.67424590.2756	0.67673720.276	0.67783840.2765	0.67656170.277	0.67191910.2775	0.66292280.278	0.6485850.2784	0.62792310.2789	0.60058650.2794	0.56745410.2799	0.52954610.2804	0.48788290.2808	0.44348470.2813	0.39737190.2818	0.35056480.2823	0.30408370.2828	0.25894730.2832	0.21581480.2837	0.17452330.2842	0.13479570.2847	9.64E-020.2852	5.89E-020.2856	2.22E-020.2861	-1.40E-020.2866	-5.01E-020.2871	-8.62E-020.2876	-0.1225560.288	-0.15846940.2885	-0.19333170.289	-0.22649170.2895	-0.2572980.29	-0.28509940.2904	-0.30924450.2909	-0.32908220.2914	-0.3439610.2919	-0.35352630.2924	-0.35836880.2928	-0.35926780.2933	-0.35700230.2938	-0.35235160.2943	-0.34609470.2948	-0.33901090.2952	-0.33187930.2957	-0.3254790.2962	-0.32041510.2967	-0.31663190.2972	-0.3139170.2976	-0.31205840.2981	-0.31084360.2986	-0.31006040.2991	-0.30949650.2996	-0.30893970.3	-0.30817760.3005	-0.30703950.301	-0.30554250.3015	-0.30375660.302	-0.30175160.3025	-0.29959750.3029	-0.29736430.3034	-0.29512190.3039	-0.29294030.3044	-0.29088940.3049	-0.28902230.3053	-0.28730190.3058	-0.28566070.3063	-0.2840310.3068	-0.28234540.3073	-0.28053630.3077	-0.27853630.3082	-0.27627780.3087	-0.27369320.3092	-0.27072780.3097	-0.26740850.3101	-0.26379440.3106	-0.2599450.3111	-0.25591960.3116	-0.25177740.3121	-0.24757790.3125	-0.24338040.313	-0.23924410.3135	-0.23522130.314	-0.23130890.3145	-0.22747810.3149	-0.22369990.3154	-0.21994520.3159	-0.21618520.3164	-0.21239070.3169	-0.20853290.3173	-0.20458270.3178	-0.20051670.3183	-0.19636290.3188	-0.19217780.3193	-0.18801790.3197	-0.18393980.3202	-0.18000020.3207	-0.17625560.3212	-0.17276280.3217	-0.16957820.3221	-0.16675290.3226	-0.16427260.3231	-0.16208130.3236	-0.16012220.3241	-0.15833880.3245	-0.15667430.325	-0.15507210.3255	-0.15347560.326	-0.15182790.3265	-0.15007580.3269	-0.14821270.3274	-0.14626710.3279	-0.14426820.3284	-0.14224520.3289	-0.14022740.3293	-0.13824410.3298	-0.13632450.3303	-0.13449780.3308	-0.13279080.3313	-0.13118440.3317	-0.12961940.3322	-0.12803560.3327	-0.12637250.3332	-0.12456990.3337	-0.12256740.3341	-0.12030460.3346	-0.11772120.3351	-0.11475960.3356	-0.11142480.3361	-0.10778530.3365	-0.10391250.337	-9.99E-020.3375	-9.58E-020.338	-9.16E-020.3385	-8.75E-020.3389	-8.35E-020.3394	-7.98E-020.3399	-7.62E-020.3404	-7.27E-020.3409	-6.93E-020.3413	-6.58E-020.3418	-6.21E-020.3423	-5.83E-020.3428	-0.05412260.3433	-4.96E-020.3437	-4.45E-020.3442	-3.90E-020.3447	-3.32E-020.3452	-2.71E-020.3457	-2.09E-020.3461	-1.47E-020.3466	-8.69E-030.3471	-2.92E-030.3476	2.45E-030.3481	7.32E-030.3485	1.16E-020.349	1.55E-020.3495	1.91E-020.35	2.26E-020.3505	2.60E-020.3509	2.95E-020.3514	3.33E-020.3519	0.0373630.3524	4.20E-020.3529	4.71E-020.3533	0.05271780.3538	5.86E-020.3543	6.47E-020.3548	7.09E-020.3553	7.71E-020.3557	8.31E-020.3562	8.88E-020.3567	9.41E-020.3572	0.09890720.3577	0.10332020.3582	0.10738690.3586	0.11117720.3591	0.1147610.3596	0.1182080.3601	0.12158810.3606	0.12497120.361	0.12842720.3615	0.13200380.362	0.13569230.3625	0.13947480.363	0.14333370.3634	0.1472510.3639	0.15120910.3644	0.155190.3649	0.1591760.3654	0.16314930.3658	0.16709620.3663	0.17101570.3668	0.1749090.3673	0.17877770.3678	0.18262290.3682	0.18644610.3687	0.19024850.3692	0.19403160.3697	0.19779660.3702	0.2015470.3706	0.20529350.3711	0.20904860.3716	0.21282460.3721	0.21663390.3726	0.22048910.373	0.22440240.3735	0.22838640.374	0.23245350.3745	0.23660630.375	0.24080510.3754	0.2449990.3759	0.24913690.3764	0.25316770.3769	0.25704040.3774	0.2607040.3778	0.26410740.3783	0.26719960.3788	0.26994260.3793	0.27236590.3798	0.27452020.3802	0.27645650.3807	0.27822570.3812	0.27987880.3817	0.28146670.3822	0.28304020.3826	0.28465030.3831	0.28634130.3836	0.28811690.3841	0.28996520.3846	0.29187440.385	0.29383270.3855	0.29582830.386	0.29784930.3865	0.29988410.387	0.30192060.3874	0.30394780.3879	0.30595980.3884	0.30795280.3889	0.30992340.3894	0.31186770.3898	0.31378220.3903	0.31566330.3908	0.31750730.3913	0.31931060.3918	0.32107150.3922	0.32280690.3927	0.32454290.3932	0.32630590.3937	0.32812230.3942	0.33001850.3946	0.33202080.3951	0.33415560.3956	0.33644930.3961	0.33892140.3966	0.34151660.397	0.34413380.3975	0.34667110.398	0.34902670.3985	0.35109870.399	0.35278540.3994	0.35398480.3999	0.3545950.4004	0.35452260.4009	0.35378540.4014	0.35248080.4018	0.35070830.4023	0.34856730.4028	0.34615720.4033	0.34357730.4038	0.3409270.4042	0.33830560.4047	0.33580920.4052	0.33347440.4057	0.33128890.4062	0.32923850.4066	0.32730920.4071	0.32548710.4076	0.32375810.4081	0.32210810.4086	0.32052320.409	0.31898860.4095	0.31747560.41	0.31594120.4105	0.31434240.411	0.31263580.4115	0.31077820.4119	0.30872620.4124	0.30643650.4129	0.3038660.4134	0.30097270.4139	0.2977550.4143	0.29425670.4148	0.29052430.4153	0.28660390.4158	0.28254190.4163	0.27838470.4167	0.27417850.4172	0.26996970.4177	0.26580420.4182	0.26170810.4187	0.25768210.4191	0.25372490.4196	0.24983550.4201	0.24601260.4206	0.24225490.4211	0.23856140.4215	0.23493090.422	0.23136180.4225	0.22783770.423	0.2243190.4235	0.22076410.4239	0.21713150.4244	0.21337940.4249	0.20946650.4254	0.20535110.4259	0.20099160.4263	0.19634680.4268	0.1913980.4273	0.18616780.4278	0.18068270.4283	0.17496950.4287	0.16905480.4292	0.16296530.4297	0.15672760.4302	0.15036840.4307	0.14391420.4311	0.13736440.4316	0.1306610.4321	0.1237390.4326	0.11653330.4331	0.10897870.4335	0.10101010.434	9.26E-020.4345	8.36E-020.435	7.40E-020.4355	6.38E-020.4359	5.32E-020.4364	4.24E-020.4369	3.18E-020.4374	2.14E-020.4379	1.16E-020.4383	2.54E-030.4388	-5.49E-030.4393	-1.23E-020.4398	-1.77E-020.4403	-2.18E-020.4407	-0.02483010.4412	-2.69E-020.4417	-2.82E-020.4422	-2.89E-020.4427	-2.92E-020.4431	-2.92E-020.4436	-0.02906390.4441	-2.90E-020.4446	-2.89E-020.4451	-2.89E-020.4455	-2.89E-020.446	-0.02890490.4465	-2.89E-020.447	-2.90E-020.4475	-2.90E-020.4479	-0.02906940.4484	-2.91E-020.4489	-2.91E-020.4494	-2.91E-020.4499	-2.91E-020.4503	-0.02911440.4508	-0.02910470.4513	-2.91E-020.4518	-0.02908090.4523	-2.91E-020.4527	-2.91E-020.4532	-2.91E-020.4537	-2.91E-020.4542	-2.91E-020.4547	-2.91E-020.4551	-2.91E-020.4556	-2.91E-020.4561	-2.91E-020.4566	-2.91E-020.4571	-2.91E-020.4575	-2.91E-020.458	-2.91E-020.4585	-2.91E-020.459	-2.91E-020.4595	-2.91E-020.4599	-2.91E-020.4604	-2.91E-020.4609	-2.91E-020.4614	-2.91E-020.4619	-0.02906890.4623	-0.02906870.4628	-2.91E-020.4633	-2.91E-020.4638	-0.02906890.4643	-2.91E-020.4647	-2.91E-020.4652	-2.91E-020.4657	-2.91E-020.4662	-2.91E-020.4667	-2.91E-020.4672	-2.91E-020.4676	-0.02907050.4681	-2.91E-020.4686	-2.91E-020.4691	-2.91E-020.4696	-2.91E-020.47	-2.91E-020.4705	-2.91E-020.471	-2.91E-020.4715	-2.91E-020.472	-2.91E-020.4724	-0.02906770.4729	-2.91E-020.4734	-0.02906840.4739	-2.91E-020.4744	-2.91E-020.4748	-2.91E-020.4753	-2.91E-020.4758	-0.02907570.4763	-2.91E-020.4768	-2.91E-020.4772	-2.91E-020.4777	-2.91E-020.4782	-2.91E-020.4787	-2.91E-020.4792	-0.02906040.4796	-2.91E-020.4801	-2.90E-020.4806	-2.90E-020.4811	-2.90E-020.4816	-2.90E-020.482	-2.91E-020.4825	-2.91E-020.483	-2.91E-020.4835	-2.91E-020.484	-2.91E-020.4844	-2.92E-020.4849	-2.92E-020.4854	-2.92E-020.4859	-2.92E-020.4864	-2.91E-020.4868	-2.91E-020.4873	-2.90E-020.4878	-2.90E-020.4883	-2.89E-020.4888	-2.88E-020.4892	-2.87E-020.4897	-2.87E-020.4902	-2.87E-020.4907	-2.88E-020.4912	-2.89E-020.4916	-2.92E-020.4921	-2.95E-020.4926	-2.98E-020.4931	-3.02E-020.4936	-3.04E-020.494	-3.05E-020.4945	-0.03045270.495	-3.02E-020.4955	-2.96E-020.496	-2.87E-020.4964	-0.02749150.4969	-2.60E-020.4974	-2.42E-020.4979	-2.22E-020.4984	-2.01E-020.4988	-0.01785970.4993	-1.56E-020.4998	-1.32E-020.5003	-1.10E-020.5008	-8.74E-030.5012	-6.59E-030.5017	-4.52E-030.5022	-2.52E-030.5027	-6.01E-040.5032	1.23E-030.5036	2.97E-030.5041	4.62E-030.5046	6.17E-030.5051	7.64E-030.5056	9.09E-030.506	1.06E-020.5065	1.22E-020.507	1.39E-020.5075	1.59E-020.508	1.82E-020.5084	2.08E-020.5089	2.38E-020.5094	2.73E-020.5099	3.11E-020.5104	3.52E-020.5108	3.93E-020.5113	4.36E-020.5118	4.77E-020.5123	5.16E-020.5128	5.53E-020.5132	5.85E-020.5137	6.13E-020.5142	6.37E-020.5147	6.57E-020.5152	0.06753940.5156	6.92E-020.5161	7.07E-020.5166	7.23E-020.5171	7.39E-020.5176	7.57E-020.518	7.77E-020.5185	7.98E-020.519	8.20E-020.5195	8.42E-020.52	8.64E-020.5204	8.84E-020.5209	9.02E-020.5214	9.18E-020.5219	9.30E-020.5224	9.39E-020.5229	9.43E-020.5233	0.09454380.5238	9.45E-020.5243	9.43E-020.5248	0.09400450.5253	9.36E-020.5257	9.33E-020.5262	9.30E-020.5267	0.09288380.5272	9.28E-020.5277	0.09287530.5281	9.30E-020.5286	0.09305860.5291	9.31E-020.5296	9.32E-020.5301	9.32E-020.5305	9.30E-020.531	9.28E-020.5315	9.25E-020.532	9.21E-020.5325	9.18E-020.5329	0.09158640.5334	9.15E-020.5339	9.17E-020.5344	9.21E-020.5349	9.29E-020.5353	9.40E-020.5358	9.55E-020.5363	0.09724730.5368	9.92E-020.5373	0.10135630.5377	0.10356620.5382	0.10579120.5387	0.10796470.5392	0.11002050.5397	0.11190220.5401	0.11363540.5406	0.11528560.5411	0.11691840.5416	0.11859950.5421	0.12039430.5425	0.12236870.543	0.12458820.5435	0.12711850.544	0.13001770.5445	0.13327220.5449	0.1368270.5454	0.14062680.5459	0.14461640.5464	0.14874050.5469	0.15294380.5473	0.1571710.5478	0.16136680.5483	0.16547920.5488	0.16949610.5493	0.17343170.5497	0.17730080.5502	0.18111780.5507	0.18489770.5512	0.18865510.5517	0.19240470.5521	0.19616120.5526	0.19993860.5531	0.20374130.5536	0.20756580.5541	0.21140860.5545	0.21526640.555	0.21913540.5555	0.22301230.556	0.22689350.5565	0.23077550.5569	0.23465480.5574	0.23852950.5579	0.24239890.5584	0.24626230.5589	0.25011910.5593	0.25396860.5598	0.25781030.5603	0.26164340.5608	0.26546730.5613	0.26928150.5617	0.27308860.5622	0.27689470.5627	0.28070560.5632	0.28452770.5637	0.28836680.5641	0.29222910.5646	0.29612080.5651	0.30004780.5656	0.30401590.5661	0.3080180.5665	0.31203130.567	0.31603210.5675	0.31999660.568	0.32390130.5685	0.32772240.5689	0.33143610.5694	0.33501890.5699	0.33844660.5704	0.34168440.5709	0.34468120.5713	0.3473850.5718	0.34974380.5723	0.35170530.5728	0.35321750.5733	0.35422840.5737	0.35468580.5742	0.35453840.5747	0.35378550.5752	0.35251040.5757	0.35080450.5762	0.34875890.5766	0.34646480.5771	0.34401360.5776	0.34149650.5781	0.33900470.5786	0.33662910.579	0.3344220.5795	0.33236070.58	0.3304140.5805	0.32855060.581	0.32673940.5814	0.3249490.5819	0.32314830.5824	0.3213060.5829	0.3193910.5834	0.31739010.5838	0.31533140.5843	0.31324850.5848	0.31117530.5853	0.30914530.5858	0.30719220.5862	0.30534990.5867	0.3036520.5872	0.30213210.5877	0.30079070.5882	0.29953890.5886	0.29827330.5891	0.29689020.5896	0.29528610.5901	0.29335730.5906	0.29100040.591	0.28811170.5915	0.28458760.592	0.28036670.5925	0.27552150.593	0.27015090.5934	0.26435390.5939	0.25822940.5944	0.25187650.5949	0.24539420.5954	0.23888140.5958	0.2324370.5963	0.22614090.5968	0.21999940.5973	0.21400180.5978	0.20813760.5982	0.20239580.5987	0.19676590.5992	0.19123710.5997	0.18579870.6002	0.180440.6006	0.17514350.6011	0.16986160.6016	0.16453820.6021	0.15911720.6026	0.15354240.603	0.14775760.6035	0.14170690.604	0.1353340.6045	0.12858290.605	0.12141580.6054	0.11389420.6059	0.10611240.6064	9.82E-020.6069	9.01E-020.6074	8.22E-020.6078	7.43E-020.6083	6.66E-020.6088	5.92E-020.6093	0.05227250.6098	4.57E-020.6102	3.94E-020.6107	3.35E-020.6112	2.78E-020.6117	2.23E-020.6122	1.71E-020.6126	0.01191310.6131	6.88E-030.6136	1.91E-030.6141	-2.95E-030.6146	-7.64E-030.615	-1.21E-020.6155	-1.62E-020.616	-2.00E-020.6165	-2.34E-020.617	-2.63E-020.6174	-2.86E-020.6179	-3.02E-020.6184	-3.13E-020.6189	-3.19E-020.6194	-3.21E-020.6198	-3.19E-020.6203	-3.15E-020.6208	-3.08E-020.6213	-3.01E-020.6218	-2.93E-020.6222	-2.86E-020.6227	-0.02797650.6232	-2.75E-020.6237	-2.71E-020.6242	-0.02697470.6246	-2.70E-020.6251	-2.73E-020.6256	-0.02783660.6261	-2.87E-020.6266	-2.98E-020.627	-3.12E-020.6275	-3.29E-020.628	-3.48E-020.6285	-3.69E-020.629	-0.03900950.6294	-4.12E-020.6299	-4.34E-020.6304	-4.56E-020.6309	-4.77E-020.6314	-4.96E-020.6319	-5.15E-020.6323	-5.34E-020.6328	-5.52E-020.6333	-5.71E-020.6338	-5.90E-020.6343	-6.09E-020.6347	-6.29E-020.6352	-0.06502430.6357	-6.72E-020.6362	-6.95E-020.6367	-7.17E-020.6371	-7.39E-020.6376	-7.60E-020.6381	-7.78E-020.6386	-7.95E-020.6391	-8.08E-020.6395	-8.18E-020.64	-0.08243740.6405	-8.28E-020.641	-8.29E-020.6415	-8.28E-020.6419	-8.26E-020.6424	-8.23E-020.6429	-8.19E-020.6434	-8.16E-020.6439	-8.13E-020.6443	-0.08114120.6448	-0.08105750.6453	-8.10E-020.6458	-8.11E-020.6463	-8.11E-020.6467	-8.12E-020.6472	-8.13E-020.6477	-8.14E-020.6482	-8.14E-020.6487	-8.14E-020.6491	-8.14E-020.6496	-8.13E-020.6501	-8.13E-020.6506	-8.12E-020.6511	-8.12E-020.6515	-8.12E-020.652	-8.13E-020.6525	-8.14E-020.653	-8.16E-020.6535	-8.18E-020.6539	-8.20E-020.6544	-8.22E-020.6549	-8.23E-020.6554	-8.23E-020.6559	-8.21E-020.6563	-8.18E-020.6568	-8.13E-020.6573	-8.05E-020.6578	-7.95E-020.6583	-7.82E-020.6587	-7.67E-020.6592	-7.48E-020.6597	-0.07250090.6602	-6.99E-020.6607	-6.69E-020.6611	-6.34E-020.6616	-5.96E-020.6621	-5.54E-020.6626	-5.11E-020.6631	-4.68E-020.6635	-4.25E-020.664	-0.03845860.6645	-0.0347490.665	-3.15E-020.6655	-2.89E-020.6659	-2.68E-020.6664	-2.47E-020.6669	-2.20E-020.6674	-1.81E-020.6679	-1.24E-020.6683	-4.21E-030.6688	7.08E-030.6693	2.21E-020.6698	4.14E-020.6703	6.55E-020.6707	9.38E-020.6712	0.12568050.6717	0.16043560.6722	0.19739620.6727	0.23588360.6731	0.27521970.6736	0.31472590.6741	0.3537240.6746	0.39168070.6751	0.42868750.6755	0.46500360.676	0.50088830.6765	0.53660080.677	0.57240040.6775	0.60854630.6779	0.64529760.6784	0.68291380.6789	0.72151990.6794	0.76055420.6799	0.79923580.6803	0.83678380.6808	0.8724170.6813	0.90535430.6818	0.93481490.6823	0.96001770.6827	0.98018150.6832	0.99468810.6837	1.0039130.6842	1.0086090.6847	1.0095280.6851	1.0074230.6856	1.0030470.6861	0.99715190.6866	0.99049070.6871	0.9838160.6876	0.97780560.688	0.97258820.6885	0.96804760.689	0.96406640.6895	0.96052740.69	0.95731320.6904	0.95430650.6909	0.95139010.6914	0.94844650.6919	0.94536640.6924	0.94211090.6928	0.93867780.6933	0.93506550.6938	0.93127210.6943	0.9272960.6948	0.92313540.6952	0.91878840.6957	0.91425350.6962	0.90953550.6967	0.90471320.6972	0.899910.6976	0.89525060.6981	0.8908590.6986	0.88685980.6991	0.88337710.6996	0.88053530.7	0.87845880.7005	0.87723460.701	0.87645030.7015	0.87533630.702	0.87311570.7024	0.86901090.7029	0.86224510.7034	0.85204090.7039	0.83762130.7044	0.8182090.7048	0.79307780.7053	0.7623620.7058	0.72691180.7063	0.68759940.7068	0.64529690.7072	0.60087640.7077	0.55521010.7082	0.50917010.7087	0.46362840.7092	0.41943390.7096	0.37692450.7101	0.33594380.7106	0.29631510.7111	0.25786190.7116	0.22040750.712	0.18377520.7125	0.14778840.713	0.11227030.7135	7.71E-020.714	4.23E-020.7144	8.52E-030.7149	-2.37E-020.7154	-5.39E-020.7159	-0.08154320.7164	-0.10601730.7168	-0.12681960.7173	-0.14341140.7178	-0.1552670.7183	-0.16237590.7188	-0.16540250.7192	-0.1650570.7197	-0.16204980.7202	-0.15709130.7207	-0.15089160.7212	-0.14416110.7216	-0.13761010.7221	-0.13194310.7226	-0.12752790.7231	-0.12421770.7236	-0.1218220.724	-0.12015040.7245	-0.11901260.725	-0.11821810.7255	-0.11757660.726	-0.11689760.7264	-0.11599170.7269	-0.11475030.7274	-0.11320970.7279	-0.11142120.7284	-0.1094360.7288	-0.10730550.7293	-0.1050810.7298	-0.10281360.7303	-0.10055470.7308	-9.84E-020.7312	-9.62E-020.7317	-9.42E-020.7322	-9.23E-020.7327	-9.04E-020.7332	-8.85E-020.7336	-8.66E-020.7341	-8.48E-020.7346	-8.30E-020.7351	-8.11E-020.7356	-7.92E-020.736	-7.73E-020.7365	-7.53E-020.737	-0.07337910.7375	-7.14E-020.738	-6.95E-020.7384	-6.76E-020.7389	-6.56E-020.7394	-6.38E-020.7399	-6.19E-020.7404	-6.01E-020.7409	-5.82E-020.7413	-5.64E-020.7418	-5.45E-020.7423	-5.26E-020.7428	-5.06E-020.7433	-4.86E-020.7437	-4.64E-020.7442	-4.42E-020.7447	-4.19E-020.7452	-3.96E-020.7457	-3.74E-020.7461	-3.53E-020.7466	-3.33E-020.7471	-3.16E-020.7476	-3.02E-020.7481	-2.91E-020.7485	-2.83E-020.749	-2.79E-020.7495	-2.78E-020.75	-2.79E-020.7505	-2.81E-020.7509	-2.84E-020.7514	-0.02865570.7519	-2.89E-020.7524	-0.02906490.7529	-0.02906380.7533	-2.89E-020.7538	-2.87E-020.7543	-2.85E-020.7548	-2.83E-020.7553	-2.82E-020.7557	-2.83E-020.7562	-2.85E-020.7567	-2.90E-020.7572	-2.97E-020.7577	-3.06E-020.7581	-3.16E-020.7586	-3.24E-020.7591	-3.30E-020.7596	-3.31E-020.7601	-0.03266730.7605	-3.15E-020.761	-2.95E-020.7615	-2.66E-020.762	-2.28E-020.7625	-1.84E-020.7629	-1.38E-020.7634	-9.06E-030.7639	-4.52E-030.7644	-4.33E-040.7649	2.96E-030.7653	5.40E-030.7658	6.67E-030.7663	6.91E-030.7668	6.42E-030.7673	5.49E-030.7677	4.45E-030.7682	3.58E-030.7687	3.20E-030.7692	3.61E-030.7697	5.11E-030.7701	7.97E-030.7706	1.21E-020.7711	1.74E-020.7716	0.02335760.7721	2.99E-020.7725	3.67E-020.773	4.35E-020.7735	5.01E-020.774	0.05614610.7745	6.15E-020.7749	6.60E-020.7754	7.00E-020.7759	7.36E-020.7764	7.69E-020.7769	8.02E-020.7773	8.36E-020.7778	8.72E-020.7783	9.12E-020.7788	0.09579960.7793	0.10099560.7797	0.10664750.7802	0.11262490.7807	0.11879740.7812	0.12503450.7817	0.13120570.7821	0.13718060.7826	0.14282880.7831	0.14802480.7836	0.15274370.7841	0.15705430.7845	0.16102910.785	0.16474050.7855	0.1682610.786	0.1716630.7865	0.1750190.7869	0.17840130.7874	0.18188090.7879	0.18548690.7884	0.18920290.7889	0.19301060.7893	0.19689140.7898	0.20082690.7903	0.20479840.7908	0.20878760.7913	0.2127760.7917	0.21674530.7922	0.22068560.7927	0.22459780.7932	0.22848350.7937	0.23234420.7941	0.23618140.7946	0.23999670.7951	0.24379150.7956	0.24756740.7961	0.25132610.7966	0.25507320.797	0.25882070.7975	0.2625810.798	0.26636640.7985	0.27018930.799	0.2740620.7994	0.2779970.7999	0.28200670.8004	0.2861030.8009	0.29027630.8014	0.29447920.8018	0.29866070.8023	0.30276980.8028	0.30675540.8033	0.31056650.8038	0.31415220.8042	0.31746120.8047	0.3204430.8052	0.32307790.8057	0.32540920.8062	0.32748810.8066	0.32936520.8071	0.33109170.8076	0.33271830.8081	0.3342960.8086	0.33587570.809	0.33750830.8095	0.33922770.81	0.34102790.8105	0.3428970.811	0.34482320.8114	0.34679480.8119	0.34879980.8124	0.35082660.8129	0.35286310.8134	0.35489770.8138	0.35692050.8143	0.35892670.8148	0.3609130.8153	0.36287550.8158	0.36481070.8162	0.36671490.8167	0.36858450.8172	0.37041580.8177	0.37220530.8182	0.37395520.8186	0.37568790.8191	0.37742970.8196	0.3792070.8201	0.38104620.8206	0.38297350.821	0.38501550.8215	0.38719840.822	0.38954860.8225	0.39207080.823	0.39468410.8234	0.39728670.8239	0.39977680.8244	0.40205250.8249	0.4040120.8254	0.40555350.8258	0.40657510.8263	0.40697490.8268	0.40667980.8273	0.40574990.8278	0.40428460.8282	0.40238330.8287	0.40014530.8292	0.39766990.8297	0.39505650.8302	0.39240430.8306	0.38981290.8311	0.38736820.8316	0.38508210.8321	0.38294060.8326	0.380930.833	0.37903620.8335	0.37724540.834	0.37554360.8345	0.3739170.835	0.37235150.8354	0.37083060.8359	0.36931830.8364	0.36777090.8369	0.36614470.8374	0.3643960.8378	0.36248120.8383	0.36035640.8388	0.35797810.8393	0.35530240.8398	0.35229290.8402	0.34896960.8407	0.34538050.8412	0.34157330.8417	0.33759610.8422	0.33349670.8426	0.32932310.8431	0.32512310.8436	0.32094460.8441	0.31683230.8446	0.31279780.845	0.30883420.8455	0.30493430.846	0.30109090.8465	0.29729710.847	0.29354550.8474	0.28982910.8479	0.28614080.8484	0.28247280.8489	0.27881050.8494	0.27513450.8498	0.27142550.8503	0.26766410.8508	0.26383090.8513	0.25990660.8518	0.25587170.8523	0.2517070.8527	0.24739170.8532	0.24288520.8537	0.23813180.8542	0.23307540.8547	0.22765970.8551	0.22182860.8556	0.21552590.8561	0.20869540.8566	0.2012810.8571	0.19323060.8575	0.18457290.858	0.17540860.8585	0.16584080.859	0.1559730.8595	0.14590830.8599	0.135750.8604	0.12560140.8609	0.11556570.8614	0.10574540.8619	9.62E-020.8623	8.71E-020.8628	7.84E-020.8633	7.01E-020.8638	6.25E-020.8643	5.54E-020.8647	4.91E-020.8652	4.35E-020.8657	3.88E-020.8662	3.48E-020.8667	3.17E-020.8671	2.91E-020.8676	2.72E-020.8681	2.57E-020.8686	0.02468580.8691	0.0239610.8695	0.02347630.87	2.31E-020.8705	2.29E-020.871	2.28E-020.8715	2.27E-020.8719	2.27E-020.8724	2.28E-020.8729	2.29E-020.8734	2.30E-020.8739	2.31E-020.8743	2.33E-020.8748	2.35E-020.8753	2.36E-020.8758	2.37E-020.8763	2.38E-020.8767	2.38E-020.8772	2.38E-020.8777	2.36E-020.8782	2.35E-020.8787	2.32E-020.8791	2.28E-020.8796	2.24E-020.8801	2.20E-020.8806	2.18E-020.8811	2.16E-020.8815	2.16E-020.882	2.19E-020.8825	2.25E-020.883	2.35E-020.8835	2.48E-020.8839	2.65E-020.8844	0.02836930.8849	3.04E-020.8854	3.26E-020.8859	3.48E-020.8863	3.70E-020.8868	3.91E-020.8873	4.09E-020.8878	4.26E-020.8883	4.41E-020.8887	4.55E-020.8892	4.70E-020.8897	4.87E-020.8902	5.05E-020.8907	0.05271260.8911	5.53E-020.8916	5.84E-020.8921	6.20E-020.8926	6.61E-020.8931	7.04E-020.8935	7.49E-020.894	7.93E-020.8945	8.34E-020.895	8.72E-020.8955	9.05E-020.8959	9.31E-020.8964	9.49E-020.8969	9.59E-020.8974	9.64E-020.8979	9.63E-020.8983	9.60E-020.8988	9.53E-020.8993	9.45E-020.8998	9.37E-020.9003	0.09304570.9007	9.26E-020.9012	9.23E-020.9017	9.21E-020.9022	9.21E-020.9027	9.22E-020.9031	9.24E-020.9036	9.26E-020.9041	9.28E-020.9046	9.30E-020.9051	9.31E-020.9056	9.32E-020.906	9.33E-020.9065	9.33E-020.907	9.33E-020.9075	9.32E-020.908	0.09316360.9084	9.31E-020.9089	9.30E-020.9094	9.30E-020.9099	9.29E-020.9104	9.29E-020.9108	9.29E-020.9113	9.29E-020.9118	9.29E-020.9123	9.29E-020.9128	9.29E-020.9132	9.30E-020.9137	9.31E-020.9142	9.32E-020.9147	9.33E-020.9152	9.34E-020.9156	0.09342770.9161	9.34E-020.9166	9.34E-020.9171	9.33E-020.9176	9.31E-020.918	9.28E-020.9185	9.25E-020.919	9.21E-020.9195	9.18E-020.92	0.09157690.9204	9.15E-020.9209	9.16E-020.9214	0.09202960.9219	0.09272160.9224	9.38E-020.9228	9.51E-020.9233	9.68E-020.9238	9.87E-020.9243	0.10076750.9248	0.10294850.9252	0.10519130.9257	0.10744080.9262	0.10964180.9267	0.11174220.9272	0.11373540.9276	0.11564810.9281	0.11750810.9286	0.11934280.9291	0.12117990.9296	0.1230470.93	0.12497170.9305	0.12698160.931	0.1291020.9315	0.13131550.932	0.13356810.9324	0.13580460.9329	0.13796960.9334	0.1400080.9339	0.14186450.9344	0.1434840.9348	0.1448110.9353	0.14579270.9358	0.14642750.9363	0.14676590.9368	0.14686020.9372	0.1467630.9377	0.14652680.9382	0.14620430.9387	0.14584790.9392	0.14551010.9396	0.14524250.9401	0.14506740.9406	0.14497250.9411	0.14494380.9416	0.14496730.942	0.14502880.9425	0.14511430.943	0.14520960.9435	0.14530080.944	0.14537390.9444	0.14542220.9449	0.14544870.9454	0.14545730.9459	0.14545170.9464	0.14543570.9468	0.14541310.9473	0.14538760.9478	0.1453630.9483	0.14534310.9488	0.14532980.9492	0.14532240.9497	0.14531990.9502	0.14532120.9507	0.14532540.9512	0.14533140.9516	0.14533820.9521	0.14534470.9526	0.14535010.9531	0.14535370.9536	0.14535560.954	0.14535620.9545	0.14535580.955	0.14535470.9555	0.14535310.956	0.14535140.9564	0.14534980.9569	0.14534870.9574	0.14534810.9579	0.1453480.9584	0.14534820.9588	0.14534860.9593	0.14534910.9598	0.14534950.9603	0.14534970.9608	0.14534940.9613	0.14534870.9617	0.14534740.9622	0.14534580.9627	0.14534420.9632	0.14534280.9637	0.14534190.9641	0.14534180.9646	0.14534290.9651	0.14534530.9656	0.14534930.9661	0.1453550.9665	0.14536150.967	0.14536790.9675	0.14537310.968	0.14537630.9685	0.14537630.9689	0.14537230.9694	0.14536330.9699	0.14534820.9704	0.1453270.9709	0.14530260.9713	0.14527860.9718	0.14525870.9723	0.14524640.9728	0.14524560.9733	0.14525960.9737	0.14529240.9742	0.14534730.9747	0.14542550.9752	0.14551640.9757	0.14560640.9761	0.1456820.9766	0.14572960.9771	0.14573570.9776	0.14568660.9781	0.14556890.9785	0.1453690.979	0.14508150.9795	0.14474370.98	0.14440620.9805	0.14411950.9809	0.14393440.9814	0.14390130.9819	0.1440710.9824	0.14449410.9829	0.14522120.9833	0.14629240.9838	0.14768370.9843	0.14934710.9848	0.15123450.9853	0.15329770.9857	0.15548870.9862	0.15775940.9867	0.16006170.9872	0.16234740.9877	0.16457270.9881	0.16672470.9886	0.16880440.9891	0.17081270.9896	0.17275070.9901	0.17461930.9905	0.17641960.991	0.17815240.9915	0.17981880.992	0.18142280.9925	0.18299460.9929	0.18457840.9934	0.18621820.9939	0.18795820.9944	0.18984260.9949	0.19191550.9953	0.19422110.9958	0.19680350.9963	0.19970250.9968	0.20291070.9973	0.20639150.9977	0.21010820.9982	0.21402410.9987	0.21810220.9992	0.22230590.9997	0.22659831.0001	0.23094321.0006	0.23530261.0011	0.23963981.0016	0.24391681.0021	0.2480961.0025	0.25213961.003	0.25600971.0035	0.25966861.004	0.26307841.0045	0.26620151.0049	0.26900261.0054	0.2714911.0059	0.27371271.0064	0.27571481.0069	0.27754441.0073	0.27924861.0078	0.28087461.0083	0.28246951.0088	0.28408041.0093	0.28575311.0097	0.28750571.0102	0.28932931.0107	0.29121431.0112	0.29315061.0117	0.29512841.0121	0.29713781.0126	0.29916911.0131	0.30121231.0136	0.30325751.0141	0.3052961.0145	0.30732011.015	0.30932191.0155	0.3112941.016	0.31322851.0165	0.31511791.017	0.31695431.0174	0.31873031.0179	0.32043851.0184	0.32209181.0189	0.32372891.0194	0.32539051.0198	0.32711711.0203	0.32894941.0208	0.33092781.0213	0.3330931.0218	0.33548561.0222	0.33814491.0227	0.34103691.0232	0.34401651.0237	0.3469291.0242	0.34961971.0246	0.35193391.0251	0.3537171.0256	0.35481441.0261	0.35507141.0266	0.35433451.027	0.35255461.0275	0.34986791.028	0.34643031.0285	0.34239711.029	0.3379241.0294	0.33316661.0299	0.32828041.0304	0.3234211.0309	0.31874361.0314	0.31434351.0318	0.31019121.0323	0.30624151.0328	0.30244911.0333	0.29876891.0338	0.29515561.0342	0.2915641.0347	0.2879491.0352	0.28426531.0357	0.28048621.0362	0.27663021.0366	0.27272261.0371	0.26878861.0376	0.26485351.0381	0.26094251.0386	0.2570811.039	0.25329431.0395	0.24960751.04	0.24602761.0405	0.24250831.041	0.23899371.0414	0.23542791.0419	0.23175491.0424	0.2279191.0429	0.22386411.0434	0.21953431.0438	0.21487391.0443	0.20984861.0448	0.20451.0453	0.19888551.0458	0.19306261.0462	0.1870891.0467	0.18102221.0472	0.17491971.0477	0.16883911.0482	0.16283791.0486	0.15695891.0491	0.15118411.0496	0.14547991.0501	0.1398131.0506	0.13414981.051	0.12845681.0515	0.12270051.052	0.11684751.0525	0.11086421.053	0.1047321.0534	9.85E-021.0539	9.23E-021.0544	8.61E-021.0549	8.00E-021.0554	7.42E-021.0558	6.86E-021.0563	6.34E-021.0568	5.87E-021.0573	5.44E-021.0578	5.06E-021.0582	4.70E-021.0587	4.36E-021.0592	4.02E-021.0597	3.67E-021.0602	3.29E-021.0606	2.88E-021.0611	2.42E-021.0616	0.01890671.0621	1.31E-021.0626	6.98E-031.063	6.42E-041.0635	-5.72E-031.064	-1.19E-021.0645	-1.78E-021.065	-2.33E-021.0654	-2.80E-021.0659	-3.20E-021.0664	-3.52E-021.0669	-3.78E-021.0674	-3.98E-021.0678	-4.15E-021.0683	-4.28E-021.0688	-4.39E-021.0693	-4.50E-021.0698	-4.61E-021.0703	-4.74E-021.0707	-4.89E-021.0712	-5.06E-021.0717	-5.24E-021.0722	-5.43E-021.0727	-5.64E-021.0731	-5.86E-021.0736	-6.08E-021.0741	-6.31E-021.0746	-6.55E-021.0751	-6.78E-021.0755	-0.07015231.076	-7.24E-021.0765	-7.45E-021.077	-7.65E-021.0775	-0.07825271.0779	-7.98E-021.0784	-8.10E-021.0789	-8.19E-021.0794	-0.0824441.0799	-8.27E-021.0803	-8.28E-021.0808	-0.08270491.0813	-8.25E-021.0818	-8.22E-021.0823	-8.18E-021.0827	-8.15E-021.0832	-8.13E-021.0837	-8.11E-021.0842	-8.10E-021.0847	-8.10E-021.0851	-8.10E-021.0856	-0.08110351.0861	-8.12E-021.0866	-8.13E-021.0871	-8.14E-021.0875	-8.14E-021.088	-8.15E-021.0885	-8.15E-021.089	-8.15E-021.0895	-8.15E-021.0899	-8.15E-021.0904	-8.14E-021.0909	-8.14E-021.0914	-8.14E-021.0919	-8.14E-021.0923	-0.08138381.0928	-0.0813831.0933	-8.14E-021.0938	-8.14E-021.0943	-8.14E-021.0947	-0.08140251.0952	-8.14E-021.0957	-8.14E-021.0962	-8.14E-021.0967	-0.08137471.0971	-8.14E-021.0976	-8.13E-021.0981	-8.13E-021.0986	-0.08131131.0991	-8.13E-021.0995	-8.13E-021.1	-8.14E-021.1005	-0.08141331.101	-8.15E-021.1015	-8.16E-021.1019	-8.16E-021.1024	-8.17E-021.1029	-8.17E-021.1034	-0.08172031.1039	-8.17E-021.1043	-8.15E-021.1048	-8.13E-021.1053	-8.10E-021.1058	-0.08051481.1063	-7.97E-021.1067	-7.85E-021.1072	-0.07677481.1077	-7.45E-021.1082	-7.15E-021.1087	-6.77E-021.1091	-6.30E-021.1096	-5.75E-021.1101	-5.11E-021.1106	-4.39E-021.1111	-3.62E-021.1115	-2.81E-021.112	-1.96E-021.1125	-1.08E-021.113	-1.95E-031.1135	6.90E-031.1139	1.57E-021.1144	2.45E-021.1149	0.03331711.1154	4.24E-021.1159	5.17E-021.1163	6.14E-021.1168	7.16E-021.1173	8.24E-021.1178	9.38E-021.1183	0.10598051.1187	0.11909591.1192	0.13329421.1197	0.14873521.1202	0.16557871.1207	0.18398451.1211	0.20411261.1216	0.22612271.1221	0.25017471.1226	0.2763481.1231	0.30440771.1235	0.33404151.124	0.36493761.1245	0.39678381.125	0.4292681.1255	0.46207821.126	0.49490231.1264	0.52742811.1269	0.55940281.1274	0.59084871.1279	0.62186861.1284	0.65256491.1288	0.68304041.1293	0.71339771.1298	0.74373951.1303	0.77416831.1308	0.80478671.1312	0.8356241.1317	0.86630061.1322	0.89629581.1327	0.92508891.1332	0.9521591.1336	0.97698531.1341	0.9990471.1346	1.0178231.1351	1.0327931.1356	1.0435281.136	1.0502091.1365	1.0532681.137	1.0531351.1375	1.0502421.138	1.0450211.1384	1.0379031.1389	1.029321.1394	1.0197031.1399	1.0094561.1404	0.99875071.1408	0.98765061.1413	0.97621751.1418	0.96451341.1423	0.95260031.1428	0.94054021.1432	0.92839521.1437	0.91622721.1442	0.90409581.1447	0.89203861.1452	0.880081.1456	0.86824461.1461	0.85655711.1466	0.84504181.1471	0.83372341.1476	0.82262631.148	0.81177511.1485	0.80118561.149	0.7907681.1495	0.78036361.15	0.76981221.1504	0.75895361.1509	0.74762791.1514	0.73567471.1519	0.72293411.1524	0.7092461.1528	0.69445281.1533	0.67843571.1538	0.66110581.1543	0.6423751.1548	0.6221551.1552	0.60035751.1557	0.57689431.1562	0.55167731.1567	0.52461831.1572	0.49563761.1576	0.46481711.1581	0.43238321.1586	0.39856741.1591	0.36360111.1596	0.32771571.16	0.29114261.1605	0.25411331.161	0.21685921.1615	0.17961281.162	0.14263361.1624	0.10620931.1629	7.06E-021.1634	3.62E-021.1639	3.15E-031.1644	-2.82E-021.1648	-5.75E-021.1653	-8.45E-021.1658	-0.10896151.1663	-0.13073881.1668	-0.14994411.1672	-0.16669721.1677	-0.18111771.1682	-0.19332511.1687	-0.20343921.1692	-0.21157951.1696	-0.21786561.1701	-0.22241811.1706	-0.22540241.1711	-0.22704651.1716	-0.22758341.172	-0.2272461.1725	-0.22626731.173	-0.224881.1735	-0.22331731.174	-0.22181191.1744	-0.22059531.1749	-0.21979271.1754	-0.21935471.1759	-0.21921581.1764	-0.21931021.1768	-0.21957251.1773	-0.2199371.1778	-0.22033821.1783	-0.22071041.1788	-0.22098841.1792	-0.22113691.1797	-0.22117881.1802	-0.22114371.1807	-0.22106091.1812	-0.22095991.1817	-0.22087021.1821	-0.22082121.1826	-0.22084231.1831	-0.2209631.1836	-0.22118971.1841	-0.22147721.1845	-0.22177341.185	-0.2220261.1855	-0.22218281.186	-0.22219151.1865	-0.22199991.1869	-0.22155591.1874	-0.2208071.1879	-0.21972351.1884	-0.21833411.1889	-0.21667761.1893	-0.21479261.1898	-0.21271771.1903	-0.21049171.1908	-0.20815311.1913	-0.20574061.1917	-0.20329291.1922	-0.20084861.1927	-0.19844611.1932	-0.19612381.1937	-0.19392031.1941	-0.19187381.1946	-0.19002291.1951	-0.18840591.1956	-0.18706131.1961	-0.18602751.1965	-0.18532691.197	-0.18492211.1975	-0.18476141.198	-0.18479351.1985	-0.18496671.1989	-0.18522951.1994	-0.18553041.1999	-0.18581781.2004	-0.18604031.2009	-0.1861581.2013	-0.18618321.2018	-0.18614281.2023	-0.18606371.2028	-0.18597281.2033	-0.18589691.2037	-0.18586291.2042	-0.18589781.2047	-0.18602831.2052	-0.18627111.2057	-0.18658831.2061	-0.18692391.2066	-0.18722191.2071	-0.18742631.2076	-0.18748121.2081	-0.18733051.2085	-0.18691831.209	-0.18618861.2095	-0.18509691.21	-0.18367091.2105	-0.18196691.2109	-0.1800411.2114	-0.17794951.2119	-0.17574871.2124	-0.17349471.2129	-0.17124381.2133	-0.16905211.2138	-0.16696911.2143	-0.16499111.2148	-0.16309011.2153	-0.1612381.2157	-0.15940661.2162	-0.15756781.2167	-0.15569341.2172	-0.15375551.2177	-0.15172571.2181	-0.14958151.2186	-0.14735141.2191	-0.14509131.2196	-0.14285761.2201	-0.14070661.2205	-0.13869451.221	-0.13687761.2215	-0.13531231.222	-0.13405481.2225	-0.13315581.2229	-0.13260061.2234	-0.13233381.2239	-0.1322991.2244	-0.13244011.2249	-0.13270081.2253	-0.13302471.2258	-0.13335581.2263	-0.13363771.2268	-0.13381741.2273	-0.13388811.2277	-0.13387681.2282	-0.13381151.2287	-0.133721.2292	-0.13363021.2297	-0.133571.2301	-0.13356731.2306	-0.13364991.2311	-0.13384351.2316	-0.13413051.2321	-0.13445691.2325	-0.13476751.233	-0.13500691.2335	-0.13511981.234	-0.1350511.2345	-0.1347451.235	-0.13414671.2354	-0.1332031.2359	-0.13191251.2364	-0.13032541.2369	-0.12849421.2374	-0.12647151.2378	-0.12430961.2383	-0.12206111.2388	-0.11977851.2393	-0.11751421.2398	-0.11531981.2402	-0.11321751.2407	-0.11119531.2412	-0.10923951.2417	-0.10733631.2422	-0.10547171.2426	-0.1036321.2431	-0.10180341.2436	-0.09997211.2441	-9.81E-021.2446	-9.63E-021.245	-0.09436091.2455	-9.25E-021.246	-9.05E-021.2465	-8.86E-021.247	-8.66E-021.2474	-0.08467851.2479	-8.27E-021.2484	-0.08075451.2489	-7.88E-021.2494	-7.68E-021.2498	-7.49E-021.2503	-7.29E-021.2508	-7.10E-021.2513	-6.91E-021.2518	-0.06719381.2522	-6.53E-021.2527	-6.35E-021.2532	-6.16E-021.2537	-5.98E-021.2542	-5.80E-021.2546	-0.05609851.2551	-5.42E-021.2556	-5.23E-021.2561	-5.03E-021.2566	-4.82E-021.257	-4.60E-021.2575	-4.38E-021.258	-4.15E-021.2585	-3.93E-021.259	-3.71E-021.2594	-3.50E-021.2599	-3.31E-021.2604	-3.14E-021.2609	-3.00E-021.2614	-2.89E-021.2618	-2.82E-021.2623	-2.78E-021.2628	-2.76E-021.2633	-2.76E-021.2638	-2.78E-021.2642	-2.81E-021.2647	-2.85E-021.2652	-2.88E-021.2657	-2.91E-021.2662	-2.93E-021.2666	-2.94E-021.2671	-2.95E-021.2676	-2.95E-021.2681	-2.94E-021.2686	-2.93E-021.269	-2.92E-021.2695	-0.02914971.27	-2.91E-021.2705	-2.90E-021.271	-2.90E-021.2714	-2.89E-021.2719	-2.89E-021.2724	-2.90E-021.2729	-2.90E-021.2734	-2.90E-021.2738	-2.90E-021.2743	-2.91E-021.2748	-2.91E-021.2753	-2.91E-021.2758	-2.92E-021.2762	-2.92E-021.2767	-2.92E-021.2772	-2.92E-021.2777	-2.92E-021.2782	-2.91E-021.2786	-2.91E-021.2791	-2.90E-021.2796	-2.89E-021.2801	-2.89E-021.2806	-0.02879081.281	-2.88E-021.2815	-2.87E-021.282	-2.88E-021.2825	-2.89E-021.283	-2.90E-021.2834	-2.93E-021.2839	-2.96E-021.2844	-2.98E-021.2849	-3.01E-021.2854	-3.02E-021.2858	-3.03E-021.2863	-3.01E-021.2868	-2.98E-021.2873	-2.92E-021.2878	-2.84E-021.2882	-0.02733081.2887	-2.63E-021.2892	-2.54E-021.2897	-0.02476521.2902	-2.46E-021.2907	-2.50E-021.2911	-2.62E-021.2916	-2.84E-021.2921	-3.15E-021.2926	-3.57E-021.2931	-4.07E-021.2935	-4.64E-021.294	-5.26E-021.2945	-5.91E-021.295	-6.59E-021.2955	-7.27E-021.2959	-7.94E-021.2964	-8.58E-021.2969	-9.19E-021.2974	-9.78E-021.2979	-0.10357451.2983	-0.10919261.2988	-0.11474731.2993	-0.12029371.2998	-0.12588721.3003	-0.13158281.3007	-0.1374311.3012	-0.14341661.3017	-0.14947791.3022	-0.15555231.3027	-0.16157741.3031	-0.16749051.3036	-0.1732291.3041	-0.17873041.3046	-0.1839321.3051	-0.18877511.3055	-0.19326181.306	-0.19744491.3065	-0.20137861.307	-0.20511741.3075	-0.20871541.3079	-0.21222711.3084	-0.21570661.3089	-0.21920821.3094	-0.22278481.3099	-0.22645581.3103	-0.23020871.3108	-0.23402961.3113	-0.23790481.3118	-0.24182051.3123	-0.24576281.3127	-0.2497181.3132	-0.25367231.3137	-0.2576121.3142	-0.26153041.3147	-0.26542791.3151	-0.26930541.3156	-0.27316391.3161	-0.27700441.3166	-0.28082771.3171	-0.28463471.3175	-0.28842651.318	-0.29220411.3185	-0.29597221.319	-0.29974061.3195	-0.30351931.3199	-0.30731841.3204	-0.3111481.3209	-0.31501811.3214	-0.31893881.3219	-0.32292011.3223	-0.32697181.3228	-0.33108431.3233	-0.3352191.3238	-0.33933471.3243	-0.34339011.3247	-0.34734431.3252	-0.35115591.3257	-0.35478391.3262	-0.35818711.3267	-0.36132461.3271	-0.36417391.3276	-0.36674531.3281	-0.36905271.3286	-0.37110971.3291	-0.372931.3295	-0.37452751.33	-0.37591581.3305	-0.37710861.331	-0.37811971.3315	-0.37895451.3319	-0.37960141.3324	-0.38004651.3329	-0.38027621.3334	-0.38027661.3339	-0.38003391.3343	-0.37953451.3348	-0.37876451.3353	-0.37771021.3358	-0.37637231.3363	-0.37478691.3367	-0.37299531.3372	-0.37103891.3377	-0.3689591.3382	-0.3667971.3387	-0.36459421.3391	-0.36239211.3396	-0.36023191.3401	-0.35814321.3406	-0.35612121.3411	-0.35415521.3415	-0.35223431.342	-0.35034771.3425	-0.34848451.343	-0.3466341.3435	-0.34478521.3439	-0.34292741.3444	-0.34105211.3449	-0.33915961.3454	-0.33725181.3459	-0.33533071.3464	-0.33339821.3468	-0.33145631.3473	-0.3295071.3478	-0.32755231.3483	-0.3255941.3488	-0.32363441.3492	-0.32167621.3497	-0.31972251.3502	-0.31777611.3507	-0.31584011.3512	-0.31391741.3516	-0.3120111.3521	-0.31012391.3526	-0.30825911.3531	-0.30641711.3536	-0.30458771.354	-0.30275681.3545	-0.30091061.355	-0.29903521.3555	-0.29711681.356	-0.29514161.3564	-0.29309561.3569	-0.29096491.3574	-0.28874331.3579	-0.28646761.3584	-0.28419021.3588	-0.28196371.3593	-0.27984061.3598	-0.27787341.3603	-0.27611451.3608	-0.27461651.3612	-0.27343191.3617	-0.27260331.3622	-0.27210451.3627	-0.27188041.3632	-0.27187571.3636	-0.27203511.3641	-0.27230331.3646	-0.2726251.3651	-0.27294491.3656	-0.27320771.366	-0.27336421.3665	-0.27341651.367	-0.27339251.3675	-0.27331981.368	-0.27322641.3684	-0.27314031.3689	-0.27308921.3694	-0.27310111.3699	-0.27320381.3704	-0.27342041.3708	-0.2737241.3713	-0.27405881.3718	-0.27436861.3723	-0.2745971.3728	-0.2746881.3732	-0.27458521.3737	-0.27423241.3742	-0.27357331.3747	-0.27255691.3752	-0.27119521.3756	-0.26954371.3761	-0.26765861.3766	-0.26559621.3771	-0.26341261.3776	-0.26116421.378	-0.2589071.3785	-0.25669751.379	-0.2545891.3795	-0.25259011.38	-0.25067391.3804	-0.24881251.3809	-0.24697811.3814	-0.24514271.3819	-0.24327861.3824	-0.24135771.3828	-0.23935221.3833	-0.23723641.3838	-0.23502571.3843	-0.2327741.3848	-0.23053661.3852	-0.22836881.3857	-0.22632591.3862	-0.22446331.3867	-0.22283611.3872	-0.22149981.3876	-0.22050761.3881	-0.21986341.3886	-0.21951711.3891	-0.21941651.3896	-0.21950891.39	-0.21974191.3905	-0.22006311.391	-0.22041991.3915	-0.22075981.392	-0.22103121.3924	-0.22121051.3929	-0.22130921.3934	-0.22134111.3939	-0.22132011.3944	-0.22126011.3948	-0.22117471.3953	-0.22107791.3958	-0.22098341.3963	-0.22090491.3968	-0.22084981.3972	-0.2208161.3977	-0.22080061.3982	-0.2208011.3987	-0.22081431.3992	-0.22083781.3997	-0.22086871.4001	-0.22090411.4006	-0.22094131.4011	-0.22097761.4016	-0.22101031.4021	-0.22103661.4025	-0.2210541.403	-0.22105971.4035	-0.22105091.404	-0.22102521.4045	-0.22097971.4049	-0.22091181.4054	-0.22082381.4059	-0.22072821.4064	-0.22063841.4069	-0.22056791.4073	-0.22053041.4078	-0.22053921.4083	-0.22060781.4088	-0.220751.4093	-0.2209791.4097	-0.22129071.4102	-0.22163971.4107	-0.22197451.4112	-0.22224381.4117	-0.22239611.4121	-0.22238011.4126	-0.22214431.4131	-0.22163741.4136	-0.2208081.4141	-0.21962891.4145	-0.21813991.415	-0.21639221.4155	-0.2144371.416	-0.21232571.4165	-0.21010941.4169	-0.20783951.4174	-0.20556711.4179	-0.20334351.4184	-0.2012071.4189	-0.19915361.4193	-0.19717051.4198	-0.19524481.4203	-0.19336381.4208	-0.19151481.4213	-0.18968491.4217	-0.18786141.4222	-0.18603141.4227	-0.18418451.4232	-0.18231831.4237	-0.18043281.4241	-0.17852771.4246	-0.1766031.4251	-0.17465851.4256	-0.1726941.4261	-0.17070951.4265	-0.16870471.427	-0.16668151.4275	-0.16465061.428	-0.16262541.4285	-0.16061921.4289	-0.15864541.4294	-0.15671731.4299	-0.15484831.4304	-0.15305171.4309	-0.1513411.4313	-0.14972151.4318	-0.14815511.4323	-0.14658841.4328	-0.14496831.4333	-0.14324131.4337	-0.14135441.4342	-0.1392541.4347	-0.13688711.4352	-0.13420041.4357	-0.13115131.4361	-0.12776961.4366	-0.12411391.4371	-0.12024331.4376	-0.11621671.4381	-0.11209291.4385	-0.10793091.439	-0.10378961.4395	-9.97E-021.44	-9.58E-021.4405	-9.20E-021.4409	-0.08825121.4414	-8.46E-021.4419	-8.09E-021.4424	-7.71E-021.4429	-0.0732631.4433	-0.0692951.4438	-6.52E-021.4443	-6.08E-021.4448	-5.63E-021.4453	-5.18E-021.4457	-4.73E-021.4462	-4.30E-021.4467	-0.03902951.4472	-3.54E-021.4477	-3.23E-021.4481	-2.98E-021.4486	-2.79E-021.4491	-2.68E-021.4496	-2.62E-021.4501	-2.61E-021.4505	-0.02638181.451	-2.69E-021.4515	-2.75E-021.452	-2.82E-021.4525	-2.89E-021.4529	-2.93E-021.4534	-2.96E-021.4539	-2.97E-021.4544	-2.97E-021.4549	-2.96E-021.4554	-2.95E-021.4558	-2.93E-021.4563	-2.92E-021.4568	-2.91E-021.4573	-2.91E-021.4578	-2.92E-021.4582	-2.93E-021.4587	-0.0294721.4592	-2.96E-021.4597	-2.97E-021.4602	-0.02969691.4606	-2.96E-021.4611	-2.93E-021.4616	-2.88E-021.4621	-2.82E-021.4626	-2.75E-021.463	-2.69E-021.4635	-2.64E-021.464	-2.62E-021.4645	-2.63E-021.465	-2.69E-021.4654	-2.81E-021.4659	-3.00E-021.4664	-0.03251151.4669	-3.57E-021.4674	-3.93E-021.4678	-4.33E-021.4683	-4.76E-021.4688	-5.21E-021.4693	-5.66E-021.4698	-6.12E-021.4702	-6.56E-021.4707	-6.98E-021.4712	-7.38E-021.4717	-7.77E-021.4722	-8.15E-021.4726	-8.53E-021.4731	-8.90E-021.4736	-9.26E-021.4741	-9.63E-021.4746	-1.00E-011.475	-0.10374861.4755	-0.10754041.476	-0.11136841.4765	-0.11522571.477	-0.11910571.4774	-0.12300141.4779	-0.1269061.4784	-0.13081291.4789	-0.1347151.4794	-0.13860781.4798	-0.14249041.4803	-0.14636241.4808	-0.15022341.4813	-0.15407321.4818	-0.15791131.4822	-0.16173741.4827	-0.1655511.4832	-0.16935191.4837	-0.17314211.4842	-0.17692921.4846	-0.18072141.4851	-0.18452711.4856	-0.18835451.4861	-0.1922121.4866	-0.19610781.487	-0.20005031.4875	-0.20404771.488	-0.20809821.4885	-0.21217341.489	-0.21624051.4894	-0.22026661.4899	-0.22421891.4904	-0.22806461.4909	-0.23177091.4914	-0.2353051.4918	-0.23863391.4923	-0.24172811.4928	-0.24456781.4933	-0.24713521.4938	-0.24941241.4942	-0.25138171.4947	-0.25302511.4952	-0.25432491.4957	-0.25526331.4962	-0.25582241.4966	-0.25600631.4971	-0.25589991.4976	-0.25560751.4981	-0.25523331.4986	-0.25488121.499	-0.25465551.4995	-0.25466031.5	-0.25499971.5005	-0.25577771.501	-0.25706551.5014	-0.25878681.5019	-0.26082451.5024	-0.26306161.5029	-0.26538121.5034	-0.2676661.5038	-0.26979911.5043	-0.27166361.5048	-0.27314221.5053	-0.27414291.5058	-0.27470461.5062	-0.27490991.5067	-0.2748411.5072	-0.27458051.5077	-0.27421061.5082	-0.27381391.5087	-0.27347261.5091	-0.27326941.5096	-0.27327061.5101	-0.27344361.5106	-0.27371671.5111	-0.2740181.5115	-0.27427571.512	-0.27441831.5125	-0.27437381.513	-0.27407041.5135	-0.27343651.5139	-0.27241151.5144	-0.27101981.5149	-0.26932521.5154	-0.26739151.5159	-0.26528261.5163	-0.26306221.5168	-0.26079431.5173	-0.25854271.5178	-0.25637131.5183	-0.25433681.5187	-0.25243161.5192	-0.25061331.5197	-0.24883891.5202	-0.24706581.5207	-0.2452511.5211	-0.24335171.5216	-0.24132521.5221	-0.23912851.5226	-0.23672671.5231	-0.23417151.5235	-0.23156951.524	-0.22902811.5245	-0.22665471.525	-0.22455671.5255	-0.22284161.5259	-0.22161671.5264	-0.22098951.5269	-0.22105911.5274	-0.22180791.5279	-0.22313281.5283	-0.22492831.5288	-0.22708941.5293	-0.22951091.5298	-0.23208731.5303	-0.23471361.5307	-0.23728451.5312	-0.23969881.5317	-0.24192591.5322	-0.24399571.5327	-0.24594011.5331	-0.2477911.5336	-0.24958021.5341	-0.25133961.5346	-0.2531011.5351	-0.25489641.5355	-0.25675641.536	-0.25868581.5365	-0.26066351.537	-0.26266731.5375	-0.26467491.5379	-0.26666411.5384	-0.26861271.5389	-0.27049841.5394	-0.27229911.5399	-0.27398941.5403	-0.27545461.5408	-0.2764761.5413	-0.27682891.5418	-0.27628871.5423	-0.27463091.5427	-0.2716311.5432	-0.26706431.5437	-0.26070621.5442	-0.25233381.5447	-0.24178851.5451	-0.2289991.5456	-0.21391.5461	-0.19642641.5466	-0.17651291.5471	-0.15409431.5475	-0.12910551.548	-0.10148111.5485	-7.12E-021.549	-3.82E-021.5495	-3.00E-031.5499	3.42E-021.5504	0.07291921.5509	0.11293331.5514	0.15385621.5519	0.19534311.5523	0.23704971.5528	0.27863161.5533	0.31978021.5538	0.36025251.5543	0.39981261.5547	0.43822441.5552	0.4752521.5557	0.51065941.5562	0.54421051.5567	0.57566941.5571	0.60480061.5576	0.6314431.5581	0.6555971.5586	0.67728411.5591	0.69652531.5595	0.71334211.56	0.72775581.5605	0.73978761.561	0.7494591.5615	0.75679141.5619	0.76187471.5624	0.76497321.5629	0.76637841.5634	0.76638171.5639	0.76527471.5644	0.76334871.5648	0.76089531.5653	0.7582061.5658	0.7555721.5663	0.7532081.5668	0.75109651.5672	0.74917691.5677	0.74738851.5682	0.74567071.5687	0.74396261.5692	0.74220381.5696	0.74033341.5701	0.73829071.5706	0.73604381.5711	0.73366171.5716	0.73123661.572	0.72886071.5725	0.7266261.573	0.72462441.5735	0.72294811.574	0.72168911.5744	0.72093961.5749	0.72072881.5754	0.72081981.5759	0.72090531.5764	0.72067751.5768	0.71982881.5773	0.71805191.5778	0.71503881.5783	0.71048241.5788	0.70407471.5792	0.69555011.5797	0.68485361.5802	0.67199681.5807	0.65699151.5812	0.63984941.5816	0.62058191.5821	0.5992011.5826	0.57571811.5831	0.5501451.5836	0.52252021.584	0.49304411.5845	0.46197751.585	0.42958131.5855	0.39611671.586	0.36184451.5864	0.32702571.5869	0.29192121.5874	0.25679211.5879	0.2218951.5884	0.18745541.5888	0.1536851.5893	0.12079551.5898	8.90E-021.5903	5.85E-021.5908	2.95E-021.5912	2.28E-031.5917	-2.30E-021.5922	-4.62E-021.5927	-6.73E-021.5932	-8.64E-021.5936	-0.10356751.5941	-0.1190291.5946	-0.1328651.5951	-0.14519731.5956	-0.1561481.596	-0.16583871.5965	-0.17439291.597	-0.18194821.5975	-0.18865121.598	-0.19464831.5984	-0.20008631.5989	-0.20511171.5994	-0.20987111.5999	-0.21451111.6004	-0.21917831.6008	-0.2240071.6013	-0.22896931.6018	-0.23392251.6023	-0.23872161.6028	-0.24322151.6032	-0.24727721.6037	-0.25074341.6042	-0.25347531.6047	-0.25532781.6052	-0.25616511.6056	-0.25600721.6061	-0.25500241.6066	-0.25330271.6071	-0.25106021.6076	-0.24842691.608	-0.24555491.6085	-0.24259611.609	-0.23970281.6095	-0.23702241.61	-0.23460831.6104	-0.23242351.6109	-0.23042721.6114	-0.22857891.6119	-0.22683781.6124	-0.22516331.6128	-0.22351481.6133	-0.22185141.6138	-0.22013341.6143	-0.21834421.6148	-0.21649311.6152	-0.21459071.6157	-0.21264761.6162	-0.21067451.6167	-0.20868211.6172	-0.20668091.6176	-0.20468171.6181	-0.20269481.6186	-0.20072581.6191	-0.19877291.6196	-0.19683451.6201	-0.19490851.6205	-0.1929931.621	-0.19108621.6215	-0.18918611.622	-0.18729081.6225	-0.18539831.6229	-0.18350651.6234	-0.18161231.6239	-0.17971271.6244	-0.17780471.6249	-0.17588531.6253	-0.17395171.6258	-0.17200061.6263	-0.17002931.6268	-0.16803461.6273	-0.16601951.6277	-0.16399671.6282	-0.16198021.6287	-0.15998371.6292	-0.15802131.6297	-0.15610671.6301	-0.15425381.6306	-0.15247651.6311	-0.15078861.6316	-0.1491841.6321	-0.14761511.6325	-0.14602951.633	-0.14437481.6335	-0.14259831.634	-0.14064771.6345	-0.13847031.6349	-0.13601371.6354	-0.13322551.6359	-0.13008151.6364	-0.12662681.6369	-0.12291671.6373	-0.11900651.6378	-0.11495161.6383	-0.11080721.6388	-0.10662881.6393	-0.10247151.6397	-9.84E-021.6402	-0.0944231.6407	-9.05E-021.6412	-8.67E-021.6417	-8.30E-021.6421	-7.92E-021.6426	-7.54E-021.6431	-7.16E-021.6436	-6.77E-021.6441	-6.37E-021.6445	-5.96E-021.645	-5.55E-021.6455	-5.13E-021.646	-4.71E-021.6465	-4.31E-021.6469	-3.92E-021.6474	-3.55E-021.6479	-3.22E-021.6484	-2.91E-021.6489	-0.02638371.6493	-2.40E-021.6498	-2.19E-021.6503	-0.02001591.6508	-1.83E-021.6513	-0.0166421.6517	-1.50E-021.6522	-1.34E-021.6527	-0.01173831.6532	-9.93E-031.6537	-8.01E-031.6541	-6.02E-031.6546	-3.99E-031.6551	-1.96E-031.6556	5.33E-051.6561	2.01E-031.6565	3.87E-031.657	5.61E-031.6575	7.21E-031.658	8.71E-031.6585	1.02E-021.6589	1.17E-021.6594	0.01338051.6599	1.52E-021.6604	1.74E-021.6609	1.98E-021.6613	2.27E-021.6618	2.60E-021.6623	2.98E-021.6628	3.38E-021.6633	3.80E-021.6637	0.04228651.6642	4.65E-021.6647	0.05047191.6652	5.42E-021.6657	5.74E-021.6661	6.02E-021.6666	6.25E-021.6671	6.44E-021.6676	6.60E-021.6681	6.76E-021.6685	0.06910771.669	7.08E-021.6695	7.26E-021.67	0.07484361.6705	7.75E-021.6709	8.06E-021.6714	8.41E-021.6719	8.79E-021.6724	9.20E-021.6729	9.62E-021.6734	0.10044541.6738	0.10474671.6743	0.10899341.6748	0.11311841.6753	0.11711091.6758	0.1209991.6762	0.12481111.6767	0.1285761.6772	0.13232221.6777	0.13607851.6782	0.13987351.6786	0.14373581.6791	0.14769151.6796	0.15172911.6801	0.15580641.6806	0.1598811.681	0.16390991.6815	0.16785061.682	0.17166041.6825	0.17529651.683	0.17871631.6834	0.1818781.6839	0.18476221.6844	0.18736931.6849	0.18970081.6854	0.19175791.6858	0.1935421.6863	0.19505441.6868	0.19629651.6873	0.19726961.6878	0.19797561.6882	0.19843331.6887	0.1986791.6892	0.19875021.6897	0.19868411.6902	0.19851821.6906	0.19828981.6911	0.19803631.6916	0.1977951.6921	0.19760271.6926	0.1974761.693	0.19740681.6935	0.19738491.694	0.19740041.6945	0.19744351.695	0.1975041.6954	0.19757221.6959	0.1976381.6964	0.19769161.6969	0.1977281.6974	0.19774891.6978	0.19775691.6983	0.19775441.6988	0.19774381.6993	0.19772751.6998	0.19770811.7002	0.19768781.7007	0.19766921.7012	0.19765391.7017	0.19764221.7022	0.19763441.7026	0.19763061.7031	0.19763111.7036	0.1976361.7041	0.19764561.7046	0.19766011.705	0.19767971.7055	0.19770341.706	0.19772841.7065	0.19775131.707	0.19776881.7074	0.19777771.7079	0.19777481.7084	0.19775671.7089	0.19772021.7094	0.1976621.7098	0.19758331.7103	0.19749551.7108	0.19741141.7113	0.19734391.7118	0.19730591.7122	0.19731011.7127	0.19736961.7132	0.19749711.7137	0.19770551.7142	0.19799321.7146	0.19831881.7151	0.19863411.7156	0.19889111.7161	0.19904141.7166	0.19903691.717	0.19882941.7175	0.19837081.718	0.19761291.7185	0.19652511.719	0.19513481.7194	0.19348091.7199	0.19160251.7204	0.18953861.7209	0.18732831.7214	0.18501061.7218	0.18262461.7223	0.18020921.7228	0.17780241.7233	0.17543821.7238	0.17314931.7242	0.17096871.7247	0.16892911.7252	0.16706351.7257	0.16540461.7262	0.16398541.7266	0.16283871.7271	0.16196821.7276	0.16124241.7281	0.16049091.7286	0.15954311.7291	0.15822871.7295	0.1563771.73	0.15381771.7305	0.15038031.731	0.14589421.7315	0.14023631.7319	0.13354371.7324	0.12604311.7329	0.1179611.7334	0.1095241.7339	0.10095861.7343	0.09249161.7348	8.43E-021.7353	7.68E-021.7358	6.99E-021.7363	6.37E-021.7367	5.80E-021.7372	5.27E-021.7377	0.04748411.7382	4.23E-021.7387	3.68E-021.7391	3.11E-021.7396	2.47E-021.7401	1.78E-021.7406	1.01E-021.7411	2.12E-031.7415	-6.15E-031.742	-1.45E-021.7425	-2.27E-021.743	-3.06E-021.7435	-3.80E-021.7439	-4.48E-021.7444	-5.07E-021.7449	-5.58E-021.7454	-6.02E-021.7459	-6.41E-021.7463	-6.76E-021.7468	-7.09E-021.7473	-7.40E-021.7478	-7.70E-021.7483	-8.03E-021.7487	-8.37E-021.7492	-8.75E-021.7497	-9.14E-021.7502	-9.54E-021.7507	-9.95E-021.7511	-0.10357391.7516	-0.10755011.7521	-0.11136321.7526	-0.11494221.7531	-0.11821921.7535	-0.12116951.754	-0.1238011.7545	-0.12612281.755	-0.12814361.7555	-0.12987231.7559	-0.13131781.7564	-0.1324891.7569	-0.13339481.7574	-0.13404481.7579	-0.1344621.7583	-0.13468121.7588	-0.13473791.7593	-0.13466741.7598	-0.1345051.7603	-0.1342861.7607	-0.13404581.7612	-0.13381971.7617	-0.13364221.7622	-0.13352671.7627	-0.13346461.7631	-0.13344681.7636	-0.13346371.7641	-0.13350591.7646	-0.1335641.7651	-0.13362871.7655	-0.13369061.766	-0.13374031.7665	-0.13377371.767	-0.13379281.7675	-0.13379981.7679	-0.1337971.7684	-0.13378651.7689	-0.13377081.7694	-0.13375211.7699	-0.13373251.7703	-0.13371451.7708	-0.13369941.7713	-0.13368771.7718	-0.13367981.7723	-0.13367581.7727	-0.13367631.7732	-0.13368141.7737	-0.13369151.7742	-0.1337071.7747	-0.13372821.7751	-0.13375391.7756	-0.13378081.7761	-0.13380541.7766	-0.13382391.7771	-0.1338331.7775	-0.13382881.778	-0.1338081.7785	-0.13376681.779	-0.13370181.7795	-0.1336151.7799	-0.13351931.7804	-0.13342861.7809	-0.1333571.7814	-0.13331841.7819	-0.1333271.7823	-0.13339661.7828	-0.13354121.7833	-0.1337751.7838	-0.13409291.7843	-0.13444831.7848	-0.13478871.7852	-0.13506171.7857	-0.13521491.7862	-0.13519571.7867	-0.13495171.7872	-0.13443061.7876	-0.13357981.7881	-0.13237331.7886	-0.13085481.7891	-0.12907911.7896	-0.12710141.79	-0.12497651.7905	-0.12275941.791	-0.12050511.7915	-0.11826861.792	-0.11610481.7924	-0.11405151.7929	-0.11209261.7934	-0.11020141.7939	-0.10835131.7944	-0.10651571.7948	-0.1046681.7953	-0.10278151.7958	-0.10082961.7963	-9.88E-021.7968	-9.66E-021.7972	-9.44E-021.7977	-9.22E-021.7982	-9.00E-021.7987	-8.79E-021.7992	-8.59E-021.7996	-8.42E-021.8001	-8.27E-021.8006	-8.14E-021.8011	-8.05E-021.8016	-0.07995511.802	-7.96E-021.8025	-7.96E-021.803	-7.97E-021.8035	-8.00E-021.804	-0.08036071.8044	-8.08E-021.8049	-8.13E-021.8054	-8.19E-021.8059	-8.23E-021.8064	-0.08274911.8068	-8.30E-021.8073	-8.32E-021.8078	-8.32E-021.8083	-8.29E-021.8088	-0.08236731.8092	-0.0815461.8097	-8.04E-021.8102	-7.89E-021.8107	-7.72E-021.8112	-0.075341.8116	-7.33E-021.8121	-7.11E-021.8126	-6.89E-021.8131	-0.06661861.8136	-0.06440391.814	-6.23E-021.8145	-6.02E-021.815	-5.82E-021.8155	-5.63E-021.816	-5.44E-021.8164	-5.25E-021.8169	-5.07E-021.8174	-4.89E-021.8179	-4.70E-021.8184	-4.51E-021.8188	-4.32E-021.8193	-4.13E-021.8198	-3.94E-021.8203	-3.75E-021.8208	-3.55E-021.8212	-3.36E-021.8217	-3.16E-021.8222	-2.97E-021.8227	-2.78E-021.8232	-2.58E-021.8236	-0.02393621.8241	-2.20E-021.8246	-2.01E-021.8251	-1.82E-021.8256	-1.63E-021.826	-1.43E-021.8265	-1.24E-021.827	-1.04E-021.8275	-8.42E-031.828	-6.42E-031.8284	-4.44E-031.8289	-2.47E-031.8294	-5.23E-041.8299	1.38E-031.8304	3.24E-031.8308	5.04E-031.8313	6.78E-031.8318	8.46E-031.8323	1.01E-021.8328	1.18E-021.8332	1.36E-021.8337	1.54E-021.8342	1.74E-021.8347	1.96E-021.8352	2.20E-021.8356	2.46E-021.8361	2.75E-021.8366	0.03068561.8371	3.41E-021.8376	3.78E-021.8381	4.18E-021.8385	4.61E-021.839	5.06E-021.8395	5.54E-021.84	0.06042091.8405	6.57E-021.8409	7.12E-021.8414	7.69E-021.8419	8.28E-021.8424	8.87E-021.8429	9.47E-021.8433	0.10076391.8438	0.1067911.8443	0.11277291.8448	0.11869121.8453	0.12455231.8457	0.13036431.8462	0.13613551.8467	0.14187381.8472	0.14758761.8477	0.15328491.8481	0.15897381.8486	0.16466251.8491	0.17035771.8496	0.17606451.8501	0.18178741.8505	0.18753111.851	0.19330031.8515	0.19909961.852	0.20493381.8525	0.21080751.8529	0.21672521.8534	0.22268121.8539	0.22865071.8544	0.23460671.8549	0.24052261.8553	0.24637131.8558	0.25212621.8563	0.25776031.8568	0.26324671.8573	0.26855871.8577	0.27366611.8582	0.27853161.8587	0.28311721.8592	0.28738471.8597	0.29129611.8601	0.29481321.8606	0.29789781.8611	0.3005121.8616	0.30261751.8621	0.30419581.8625	0.30527781.863	0.30590191.8635	0.30610671.864	0.30593071.8645	0.30541241.8649	0.30459031.8654	0.30350291.8659	0.30218881.8664	0.30068341.8669	0.29901341.8673	0.29720351.8678	0.29527861.8683	0.29326371.8688	0.29118361.8693	0.28906321.8697	0.28692731.8702	0.28480081.8707	0.28270451.8712	0.28064441.8717	0.27862341.8721	0.27664421.8726	0.27470961.8731	0.27282251.8736	0.27098551.8741	0.26920161.8745	0.26747351.875	0.26579791.8755	0.26414561.876	0.26248041.8765	0.26076651.8769	0.25896761.8774	0.25704791.8779	0.25497111.8784	0.25270121.8789	0.25020231.8793	0.24744291.8798	0.24441621.8803	0.24112271.8808	0.23756311.8813	0.23373781.8817	0.22964761.8822	0.22529311.8827	0.22067471.8832	0.21579321.8837	0.21065271.8841	0.20527891.8846	0.19970541.8851	0.19396581.8856	0.18809381.8861	0.1821231.8865	0.17608711.887	0.17001981.8875	0.16395461.888	0.15792281.8885	0.15193791.8889	0.14600541.8894	0.14013111.8899	0.13432051.8904	0.12857931.8909	0.12291321.8913	0.11732771.8918	0.11182851.8923	0.10641691.8928	0.10105641.8933	0.09569091.8938	9.03E-021.8942	8.47E-021.8947	7.90E-021.8952	7.31E-021.8957	6.68E-021.8962	6.02E-021.8966	5.33E-021.8971	4.60E-021.8976	3.83E-021.8981	3.05E-021.8986	2.26E-021.899	1.46E-021.8995	6.63E-031.9	-1.22E-031.9005	-8.88E-031.901	-1.63E-021.9014	-2.34E-021.9019	-3.01E-021.9024	-3.65E-021.9029	-0.04254281.9034	-4.82E-021.9038	-0.05333181.9043	-0.05805651.9048	-0.06230251.9053	-6.60E-021.9058	-6.93E-021.9062	-7.21E-021.9067	-7.45E-021.9072	-7.64E-021.9077	-0.07805651.9082	-7.94E-021.9086	-8.04E-021.9091	-8.11E-021.9096	-8.16E-021.9101	-8.20E-021.9106	-8.22E-021.911	-8.22E-021.9115	-8.22E-021.912	-8.20E-021.9125	-8.19E-021.913	-8.17E-021.9134	-8.15E-021.9139	-8.13E-021.9144	-8.12E-021.9149	-0.08118971.9154	-8.12E-021.9158	-8.12E-021.9163	-0.08122161.9168	-8.13E-021.9173	-8.13E-021.9178	-8.14E-021.9182	-8.14E-021.9187	-8.14E-021.9192	-8.15E-021.9197	-8.15E-021.9202	-8.15E-021.9206	-8.14E-021.9211	-8.14E-021.9216	-8.14E-021.9221	-0.08140321.9226	-8.14E-021.923	-8.14E-021.9235	-8.14E-021.924	-8.14E-021.9245	-8.14E-021.925	-8.14E-021.9254	-0.08138211.9259	-8.14E-021.9264	-8.14E-021.9269	-8.14E-021.9274	-8.14E-021.9278	-8.14E-021.9283	-8.14E-021.9288	-8.14E-021.9293	-8.14E-021.9298	-8.14E-021.9302	-8.14E-021.9307	-8.14E-021.9312	-8.14E-021.9317	-8.14E-021.9322	-8.14E-021.9326	-8.14E-021.9331	-8.13E-021.9336	-8.13E-021.9341	-8.13E-021.9346	-8.14E-021.935	-8.14E-021.9355	-8.14E-021.936	-8.14E-021.9365	-0.08149061.937	-8.15E-021.9374	-8.16E-021.9379	-8.16E-021.9384	-8.16E-021.9389	-8.16E-021.9394	-8.15E-021.9398	-8.14E-021.9403	-8.12E-021.9408	-8.11E-021.9413	-8.09E-021.9418	-8.07E-021.9422	-8.07E-021.9427	-8.07E-021.9432	-8.08E-021.9437	-8.10E-021.9442	-8.14E-021.9446	-0.08196281.9451	-8.24E-021.9456	-0.08261161.9461	-8.22E-021.9466	-8.11E-021.947	-7.89E-021.9475	-7.55E-021.948	-7.06E-021.9485	-6.40E-021.949	-5.55E-021.9495	-4.54E-021.9499	-0.03401451.9504	-2.18E-021.9509	-9.01E-031.9514	3.91E-031.9519	1.66E-021.9523	2.88E-021.9528	4.00E-021.9533	5.01E-021.9538	5.92E-021.9543	6.77E-021.9547	7.59E-021.9552	0.08429861.9557	9.32E-021.9562	0.10286751.9567	0.113791.9571	0.12628861.9576	0.14067341.9581	0.15694791.9586	0.1750071.9591	0.19474531.9595	0.21605741.96	0.23883771.9605	0.26298111.961	0.28838191.9615	0.31493491.9619	0.34253681.9624	0.37109911.9629	0.40053951.9634	0.43077591.9639	0.4617261.9643	0.49330771.9648	0.52543851.9653	0.55803661.9658	0.59101941.9663	0.62429091.9667	0.65763891.9672	0.6907941.9677	0.72348621.9682	0.75544571.9687	0.78640251.9691	0.81608671.9696	0.84422841.9701	0.87055781.9706	0.89482411.9711	0.91697181.9715	0.9370581.972	0.95514171.9725	0.97128131.973	0.98553591.9735	0.99796381.9739	1.0086241.9744	1.0175751.9749	1.0248761.9754	1.0305851.9759	1.0347611.9763	1.0374631.9768	1.038751.9773	1.038681.9778	1.0373121.9783	1.0347041.9787	1.0309161.9792	1.0260061.9797	1.0200331.9802	1.0130551.9807	1.0051321.9811	0.99632161.9816	0.98668291.9821	0.97627471.9826	0.96515561.9831	0.95338441.9835	0.9410211.984	0.92814811.9845	0.91486981.985	0.9012911.9855	0.88751621.9859	0.87365031.9864	0.85979821.9869	0.84606451.9874	0.8325541.9879	0.81936711.9883	0.80648621.9888	0.79376891.9893	0.78106611.9898	0.76822881.9903	0.75510821.9907	0.74155531.9912	0.72742121.9917	0.7125571.9922	0.69681461.9927	0.68007871.9931	0.66227431.9936	0.6433291.9941	0.62317041.9946	0.60172621.9951	0.57892391.9955	0.55469121.996	0.52895561.9965	0.50164651.997	0.47278211.9975	0.44250931.9979	0.41098511.9984	0.37836641.9989	0.34481011.9994	0.31047331.9999	0.27551292.0003	0.24007692.0008	0.20434142.0013	0.16855082.0018	0.133122.0023	9.85E-022.0028	6.51E-022.0032	3.33E-022.0037	3.60E-032.0042	-2.36E-022.0047	-0.04781972.0052	-6.87E-022.0056	-8.60E-022.0061	-0.10001472.0066	-0.11107422.0071	-0.11950332.0076	-0.12563062.008	-0.12978522.0085	-0.13229582.009	-0.13349122.0095	-0.13372.01	-0.13318842.0104	-0.13207772.0109	-0.13046832.0114	-0.12846082.0119	-0.12615592.0124	-0.12365392.0128	-0.12105562.0133	-0.11846142.0138	-0.11597192.0143	-0.11365732.0148	-0.11150492.0152	-0.10948772.0157	-0.10757872.0162	-0.10575092.0167	-0.10397752.0172	-0.10223142.0176	-0.10048572.0181	-9.87E-022.0186	-9.69E-022.0191	-9.50E-022.0196	-9.31E-022.02	-9.12E-022.0205	-8.93E-022.021	-8.73E-022.0215	-8.53E-022.022	-0.083342.0224	-8.14E-022.0229	-7.94E-022.0234	-0.07747572.0239	-7.55E-022.0244	-7.36E-022.0248	-7.17E-022.0253	-6.98E-022.0258	-6.79E-022.0263	-6.60E-022.0268	-6.40E-022.0272	-6.21E-022.0277	-6.02E-022.0282	-5.83E-022.0287	-5.63E-022.0292	-5.44E-022.0296	-5.25E-022.0301	-5.06E-022.0306	-4.86E-022.0311	-4.67E-022.0316	-4.48E-022.032	-0.04287082.0325	-4.10E-022.033	-3.90E-022.0335	-3.71E-022.034	-3.52E-022.0344	-3.33E-022.0349	-3.13E-022.0354	-0.02938622.0359	-2.74E-022.0364	-2.55E-022.0368	-2.35E-022.0373	-0.02159232.0378	-1.97E-022.0383	-1.77E-022.0388	-1.58E-022.0392	-1.39E-022.0397	-1.20E-022.0402	-1.02E-022.0407	-8.35E-032.0412	-6.52E-032.0416	-4.68E-032.0421	-2.81E-032.0426	-9.00E-042.0431	1.06E-032.0436	3.09E-032.044	5.21E-032.0445	7.41E-032.045	9.68E-032.0455	1.20E-022.046	1.42E-022.0464	1.63E-022.0469	1.83E-022.0474	2.01E-022.0479	2.17E-022.0484	2.29E-022.0488	2.38E-022.0493	2.44E-022.0498	2.46E-022.0503	2.47E-022.0508	2.45E-022.0512	2.43E-022.0517	2.40E-022.0522	2.36E-022.0527	2.33E-022.0532	2.31E-022.0536	2.30E-022.0541	0.02302912.0546	2.31E-022.0551	2.31E-022.0556	2.32E-022.056	2.33E-022.0565	2.33E-022.057	2.33E-022.0575	0.02318772.058	2.30E-022.0585	2.28E-022.0589	2.26E-022.0594	2.24E-022.0599	2.24E-022.0604	2.24E-022.0609	2.26E-022.0613	2.30E-022.0618	2.36E-022.0623	2.45E-022.0628	2.56E-022.0633	2.70E-022.0637	2.87E-022.0642	3.08E-022.0647	3.31E-022.0652	3.58E-022.0657	3.88E-022.0661	4.22E-022.0666	4.59E-022.0671	4.99E-022.0676	0.05395432.0681	0.05811232.0685	6.22E-022.069	6.63E-022.0695	7.01E-022.07	7.36E-022.0705	7.67E-022.0709	7.94E-022.0714	8.18E-022.0719	8.39E-022.0724	8.57E-022.0729	8.74E-022.0733	0.08890892.0738	9.04E-022.0743	9.19E-022.0748	9.35E-022.0753	9.52E-022.0757	9.70E-022.0762	9.89E-022.0767	0.1008782.0772	0.10287082.0777	0.1048942.0781	0.10693122.0786	0.1089662.0791	0.1109822.0796	0.11296942.0801	0.1149312.0805	0.11687092.081	0.11879322.0815	0.12070222.082	0.12260192.0825	0.12449652.0829	0.12639022.0834	0.1282872.0839	0.130192.0844	0.13209932.0849	0.13401472.0853	0.13593612.0858	0.13786322.0863	0.13979592.0868	0.14173412.0873	0.14367742.0877	0.14562582.0882	0.14757832.0887	0.14953182.0892	0.15148282.0897	0.1534282.0901	0.15536392.0906	0.15728712.0911	0.15919412.0916	0.16108172.0921	0.16294622.0925	0.1647882.093	0.16661882.0935	0.16845242.094	0.17030262.0945	0.17218332.0949	0.17410852.0954	0.17609192.0959	0.17814752.0964	0.18028912.0969	0.18251872.0973	0.18479442.0978	0.18706422.0983	0.18927612.0988	0.19137792.0993	0.19331772.0997	0.19504332.1002	0.19650272.1007	0.1976442.1012	0.19843092.1017	0.19889772.1021	0.19909792.1026	0.19908492.1031	0.19891222.1036	0.19863342.1041	0.19830192.1045	0.19797122.105	0.19769482.1055	0.19751682.106	0.19743222.1065	0.197422.1069	0.19745892.1074	0.19752792.1079	0.1976062.1084	0.1976722.1089	0.19770492.1093	0.19768352.1098	0.19759212.1103	0.19744862.1108	0.19728392.1113	0.19712872.1118	0.19701412.1122	0.19697082.1127	0.19702982.1132	0.19722192.1137	0.19757812.1142	0.1981182.1146	0.19877762.1151	0.19945472.1156	0.20004682.1161	0.20045152.1166	0.20056642.117	0.2002892.1175	0.19951692.118	0.19814782.1185	0.19609242.119	0.19338262.1194	0.19011512.1199	0.18638712.1204	0.18229572.1209	0.17793812.1214	0.17341162.1218	0.16881342.1223	0.16424062.1228	0.15978522.1233	0.15547992.1238	0.15132062.1242	0.14730252.1247	0.14342072.1252	0.13967062.1257	0.13604742.1262	0.13254632.1266	0.12916262.1271	0.12588852.1276	0.1226762.1281	0.11944762.1286	0.11612532.129	0.11263072.1295	0.10888582.13	0.10481242.1305	0.10033242.131	9.54E-022.1314	8.98E-022.1319	8.37E-022.1324	7.71E-022.1329	7.00E-022.1334	6.23E-022.1338	5.43E-022.1343	4.58E-022.1348	3.70E-022.1353	2.79E-022.1358	1.85E-022.1362	8.81E-032.1367	-1.01E-032.1372	-1.09E-022.1377	-2.08E-022.1382	-3.07E-022.1386	-4.04E-022.1391	-4.98E-022.1396	-5.90E-022.1401	-6.78E-022.1406	-7.63E-022.141	-8.44E-022.1415	-9.22E-022.142	-9.98E-022.1425	-0.1072452.143	-0.11459362.1434	-0.12189832.1439	-0.12921662.1444	-0.1366052.1449	-0.14409172.1454	-0.15166652.1458	-0.15931652.1463	-0.16702892.1468	-0.17479082.1473	-0.18258942.1478	-0.1904122.1482	-0.19824552.1487	-0.20607722.1492	-0.21389692.1497	-0.22169832.1502	-0.22947542.1506	-0.23722232.1511	-0.24493312.1516	-0.25260182.1521	-0.26022242.1526	-0.2677892.153	-0.27529552.1535	-0.28270292.154	-0.28991352.1545	-0.29682312.155	-0.30332742.1554	-0.30932232.1559	-0.31470362.1564	-0.3193672.1569	-0.32320832.1574	-0.32612382.1578	-0.32808132.1583	-0.32920212.1588	-0.32962732.1593	-0.3294982.1598	-0.32895542.1602	-0.32814062.1607	-0.32719472.1612	-0.32625872.1617	-0.32547382.1622	-0.32493532.1626	-0.3246232.1631	-0.32449942.1636	-0.32452652.1641	-0.32466652.1646	-0.32488162.165	-0.32513412.1655	-0.3253862.166	-0.32559972.1665	-0.32574782.167	-0.32583472.1675	-0.32587052.1679	-0.32586532.1684	-0.32582922.1689	-0.32577242.1694	-0.32570512.1699	-0.32563742.1703	-0.32557932.1708	-0.32553872.1713	-0.32551472.1718	-0.32550452.1723	-0.32550542.1727	-0.32551472.1732	-0.32552972.1737	-0.32554762.1742	-0.32556562.1747	-0.32558112.1751	-0.32559192.1756	-0.32559822.1761	-0.32560062.1766	-0.32560012.1771	-0.32559752.1775	-0.32559362.178	-0.3255892.1785	-0.32558482.179	-0.32558162.1795	-0.325582.1799	-0.325582.1804	-0.32558092.1809	-0.32558242.1814	-0.3255842.1819	-0.32558522.1823	-0.32558562.1828	-0.32558462.1833	-0.32558192.1838	-0.32557712.1843	-0.32557092.1847	-0.32556442.1852	-0.32555862.1857	-0.32555462.1862	-0.32555352.1867	-0.32555632.1871	-0.32556412.1876	-0.32557792.1881	-0.32559852.1886	-0.32562332.1891	-0.32564862.1895	-0.32567052.19	-0.32568542.1905	-0.32568942.191	-0.32567872.1915	-0.32564952.1919	-0.32559812.1924	-0.32552192.1929	-0.32542932.1934	-0.32533442.1939	-0.32525132.1943	-0.32519412.1948	-0.32517672.1953	-0.32521352.1958	-0.32531832.1963	-0.32550532.1967	-0.3257852.1972	-0.32612842.1977	-0.32648352.1982	-0.32679772.1987	-0.32701842.1991	-0.3270932.1996	-0.32696912.2001	-0.32659392.2006	-0.32591512.2011	-0.32488462.2015	-0.32351462.202	-0.32185972.2025	-0.3199752.203	-0.3179162.2035	-0.3157382.2039	-0.31349632.2044	-0.31124622.2049	-0.3090432.2054	-0.30693932.2059	-0.30494422.2063	-0.30303072.2068	-0.30117092.2073	-0.2993372.2078	-0.29750112.2083	-0.29563522.2087	-0.29371152.2092	-0.29170222.2097	-0.28958112.2102	-0.28736392.2107	-0.28510512.2111	-0.2828612.2116	-0.28068772.2121	-0.27864162.2126	-0.27677892.2131	-0.27515582.2135	-0.27382852.214	-0.27285142.2145	-0.27222792.215	-0.27190452.2155	-0.2718252.2159	-0.27193332.2164	-0.27217322.2169	-0.27248832.2174	-0.27282242.2179	-0.27311942.2183	-0.2733242.2188	-0.27341572.2193	-0.27341972.2198	-0.27336362.2203	-0.27327542.2207	-0.2731832.2212	-0.27311422.2217	-0.27309692.2222	-0.27315892.2227	-0.27332762.2232	-0.27359872.2236	-0.2739212.2241	-0.27423922.2246	-0.27449812.2251	-0.27464242.2256	-0.27461692.226	-0.27436632.2265	-0.27383552.227	-0.27296962.2275	-0.27175032.228	-0.27022352.2284	-0.26844132.2289	-0.26645612.2294	-0.26432012.2299	-0.26208562.2304	-0.25980482.2308	-0.25752992.2313	-0.25531322.2318	-0.25318712.2323	-0.25114352.2328	-0.24916942.2332	-0.24725192.2337	-0.24537782.2342	-0.24353422.2347	-0.24170822.2352	-0.23988662.2356	-0.23805652.2361	-0.23620832.2366	-0.23434062.2371	-0.2324532.2376	-0.23054552.238	-0.22861782.2385	-0.22666972.239	-0.22470092.2395	-0.22271132.24	-0.22070052.2404	-0.21867182.2409	-0.21663712.2414	-0.21461062.2419	-0.2126062.2424	-0.21063712.2428	-0.2087182.2433	-0.20686232.2438	-0.20508412.2443	-0.20339722.2448	-0.20180182.2452	-0.20025252.2457	-0.1986942.2462	-0.1970712.2467	-0.19532822.2472	-0.19341032.2476	-0.19126222.2481	-0.18882842.2486	-0.18605382.2491	-0.18290332.2496	-0.17942262.25	-0.17567842.2505	-0.17173682.251	-0.16766442.2515	-0.16352742.252	-0.15939232.2524	-0.15532552.2529	-0.15139332.2534	-0.14764332.2539	-0.14403312.2544	-0.14049322.2548	-0.13695442.2553	-0.13334712.2558	-0.1296022.2563	-0.12564972.2568	-0.12142072.2572	-0.11684582.2577	-0.11187142.2582	-0.10653562.2587	-0.10090852.2592	-9.51E-022.2596	-8.91E-022.2601	-8.30E-022.2606	-7.69E-022.2611	-7.09E-022.2616	-0.06497382.262	-5.93E-022.2625	-5.37E-022.263	-4.82E-022.2635	-4.28E-022.264	-3.73E-022.2644	-3.16E-022.2649	-2.58E-022.2654	-1.97E-022.2659	-1.32E-022.2664	-6.33E-032.2668	9.17E-042.2673	8.46E-032.2678	1.62E-022.2683	2.42E-022.2688	3.22E-022.2692	4.02E-022.2697	4.81E-022.2702	5.59E-022.2707	6.35E-022.2712	7.08E-022.2716	7.77E-022.2721	8.43E-022.2726	9.04E-022.2731	9.60E-022.2736	0.10109742.274	0.10554072.2745	0.10931342.275	0.11236272.2755	0.11467692.276	0.11627122.2765	0.11716182.2769	0.11736452.2774	0.11689532.2779	0.11577022.2784	0.1140052.2789	0.11161592.2793	0.10862282.2798	0.1051082.2803	0.1012032.2808	9.70E-022.2813	9.28E-022.2817	8.85E-022.2822	8.43E-022.2827	8.05E-022.2832	7.70E-022.2837	7.41E-022.2841	7.17E-022.2846	6.97E-022.2851	6.80E-022.2856	6.65E-022.2861	6.50E-022.2865	6.34E-022.287	6.16E-022.2875	5.94E-022.288	5.68E-022.2885	5.38E-022.2889	5.03E-022.2894	4.65E-022.2899	4.24E-022.2904	3.82E-022.2909	3.40E-022.2913	2.97E-022.2918	0.02558722.2923	2.16E-022.2928	1.79E-022.2933	1.42E-022.2937	1.07E-022.2942	7.10E-032.2947	3.45E-032.2952	-3.56E-042.2957	-4.38E-032.2961	-8.69E-032.2966	-1.34E-022.2971	-1.84E-022.2976	-2.38E-022.2981	-2.94E-022.2985	-3.53E-022.299	-4.13E-022.2995	-4.74E-022.3	-5.36E-022.3005	-5.97E-022.3009	-6.58E-022.3014	-7.17E-022.3019	-7.76E-022.3024	-8.34E-022.3029	-0.08914692.3033	-9.49E-022.3038	-0.10054392.3043	-0.10623372.3048	-0.1119422.3053	-0.11768672.3057	-0.12347562.3062	-0.12929592.3067	-0.13513242.3072	-0.140972.3077	-0.14679352.3081	-0.15258782.3086	-0.15833782.3091	-0.16402822.3096	-0.1696442.3101	-0.17518592.3105	-0.18069122.311	-0.18620242.3115	-0.19176212.312	-0.19741272.3125	-0.20319672.3129	-0.20915672.3134	-0.21533512.3139	-0.22177442.3144	-0.22846992.3149	-0.23528872.3153	-0.24207572.3158	-0.24867612.3163	-0.25493492.3168	-0.26069732.3173	-0.26580832.3177	-0.27011312.3182	-0.27345682.3187	-0.27574772.3192	-0.2770992.3197	-0.27766552.3201	-0.27760192.3206	-0.27706282.3211	-0.2762032.3216	-0.27517722.3221	-0.274142.3225	-0.27324622.323	-0.27261652.3235	-0.2722412.324	-0.27207822.3245	-0.27208672.3249	-0.27222482.3254	-0.27245142.3259	-0.27272482.3264	-0.27300362.3269	-0.27324632.3273	-0.27341922.3278	-0.27352332.3283	-0.27356982.3288	-0.27356972.3293	-0.27353432.3297	-0.27347472.3302	-0.27340192.3307	-0.27332722.3312	-0.27326162.3317	-0.27321462.3322	-0.27318632.3326	-0.27317362.3331	-0.27317342.3336	-0.27318272.3341	-0.27319852.3346	-0.27321762.335	-0.2732372.3355	-0.27325362.336	-0.27326482.3365	-0.27327062.337	-0.27327212.3374	-0.27327052.3379	-0.27326692.3384	-0.27326252.3389	-0.27325842.3394	-0.27325562.3398	-0.27325542.3403	-0.27325862.3408	-0.27326462.3413	-0.2732722.3418	-0.27327922.3422	-0.27328472.3427	-0.27328722.3432	-0.27328522.3437	-0.27327712.3442	-0.27326162.3446	-0.27323762.3451	-0.27320762.3456	-0.27317652.3461	-0.27314882.3466	-0.27312942.347	-0.2731232.3475	-0.27313422.348	-0.27316782.3485	-0.27322862.349	-0.273322.3494	-0.27343322.3499	-0.27355072.3504	-0.27365542.3509	-0.27372952.3514	-0.27375592.3518	-0.27371712.3523	-0.27359562.3528	-0.27337412.3533	-0.27303822.3538	-0.27261832.3542	-0.27217832.3547	-0.27178332.3552	-0.27149822.3557	-0.27138792.3562	-0.27151742.3566	-0.27195152.3571	-0.27275522.3576	-0.27398112.3581	-0.27545352.3586	-0.27679632.359	-0.27762632.3595	-0.27756042.36	-0.27621562.3605	-0.27320872.361	-0.26815662.3614	-0.26067642.3619	-0.25040182.3624	-0.23737652.3629	-0.22206332.3634	-0.20494392.3638	-0.18650012.3643	-0.16721362.3648	-0.14756642.3653	-0.12804012.3658	-0.10911652.3662	-9.13E-022.3667	-7.46E-022.3672	-5.90E-022.3677	-4.40E-022.3682	-0.02938912.3686	-1.49E-022.3691	-3.43E-042.3696	1.47E-022.3701	3.04E-022.3706	4.71E-022.371	0.06488772.3715	8.38E-022.372	0.10362372.3725	0.12443322.373	0.14612132.3734	0.16862612.3739	0.19188582.3744	0.21583872.3749	0.2404232.3754	0.26558882.3758	0.29130462.3763	0.31754072.3768	0.34426762.3773	0.37145542.3778	0.39907452.3782	0.42709532.3787	0.45548812.3792	0.48422252.3797	0.51320022.3802	0.54219372.3806	0.57096112.3811	0.59926062.3816	0.62685042.3821	0.65348852.3826	0.67893322.383	0.70294262.3835	0.72527522.384	0.74576122.3845	0.76439062.385	0.78117472.3854	0.79612512.3859	0.8092532.3864	0.82056992.3869	0.83008722.3874	0.83781632.3879	0.84376882.3883	0.84800172.3888	0.85069192.3893	0.85203552.3898	0.85222842.3903	0.85146692.3907	0.8499472.3912	0.84786482.3917	0.84541642.3922	0.84279792.3927	0.84011412.3931	0.83718722.3936	0.83378492.3941	0.82967452.3946	0.82462362.3951	0.81839992.3955	0.81077082.396	0.80150392.3965	0.79036672.397	0.7772252.3975	0.76230672.3979	0.74592312.3984	0.72838562.3989	0.71000552.3994	0.6910942.3999	0.67196262.4003	0.65292252.4008	0.6342852.4013	0.61628882.4018	0.59885322.4023	0.58181032.4027	0.5649922.4032	0.54823042.4037	0.53135732.4042	0.51420482.4047	0.49660482.4051	0.47838942.4056	0.45942162.4061	0.43972782.4066	0.41938712.4071	0.39847882.4075	0.37708222.408	0.35527652.4085	0.33314092.409	0.31075482.4095	0.28819742.4099	0.26552432.4104	0.24264342.4109	0.21940582.4114	0.19566222.4119	0.17126382.4123	0.14606142.4128	0.11990592.4133	9.26E-022.4138	6.41E-022.4143	3.43E-022.4147	3.55E-032.4152	-2.74E-022.4157	-5.80E-022.4162	-8.76E-022.4167	-0.11536192.4171	-0.14078062.4176	-0.163162.4181	-0.18184242.4186	-0.1962482.4191	-0.20650642.4195	-0.21312452.42	-0.21661262.4205	-0.21748132.421	-0.2162412.4215	-0.2134022.4219	-0.20947482.4224	-0.20496982.4229	-0.2003722.4234	-0.19588422.4239	-0.19153342.4243	-0.18734392.4248	-0.18334012.4253	-0.17954622.4258	-0.17598662.4263	-0.17268572.4267	-0.16966772.4272	-0.16695422.4277	-0.1645292.4282	-0.16234812.4287	-0.1603672.4291	-0.15854122.4296	-0.15682632.4301	-0.15517762.4306	-0.15355072.4311	-0.15190122.4315	-0.15018612.432	-0.14839242.4325	-0.14653232.433	-0.14461852.4335	-0.14266392.4339	-0.14068142.4344	-0.1386842.4349	-0.13668442.4354	-0.13469562.4359	-0.13272992.4363	-0.13079032.4368	-0.12887022.4373	-0.12696252.4378	-0.12506042.4383	-0.12315682.4387	-0.12124492.4392	-0.11931752.4397	-0.11736772.4402	-0.1153892.4407	-0.11338432.4412	-0.11136822.4416	-0.10935572.4421	-0.10736182.4426	-0.10540142.4431	-0.10348962.4436	-0.10164152.444	-9.99E-022.4445	-9.82E-022.445	-9.66E-022.4455	-9.50E-022.446	-0.09343832.4464	-9.18E-022.4469	-9.00E-022.4474	-8.80E-022.4479	-8.58E-022.4484	-8.33E-022.4488	-8.04E-022.4493	-7.72E-022.4498	-7.37E-022.4503	-6.99E-022.4508	-6.60E-022.4512	-6.19E-022.4517	-5.78E-022.4522	-5.36E-022.4527	-4.95E-022.4532	-0.04541562.4536	-4.15E-022.4541	-3.77E-022.4546	-3.39E-022.4551	-3.01E-022.4556	-2.64E-022.456	-2.26E-022.4565	-1.88E-022.457	-1.48E-022.4575	-1.07E-022.458	-0.00651342.4584	-2.22E-032.4589	2.06E-032.4594	6.27E-032.4599	1.03E-022.4604	1.42E-022.4608	1.77E-022.4613	2.09E-022.4618	2.37E-022.4623	2.59E-022.4628	2.79E-022.4632	2.95E-022.4637	0.03106972.4642	3.26E-022.4647	3.42E-022.4652	3.61E-022.4656	3.83E-022.4661	4.10E-022.4666	4.42E-022.4671	4.78E-022.4676	5.18E-022.468	0.05594372.4685	6.02E-022.469	6.44E-022.4695	6.85E-022.47	7.23E-022.4704	7.57E-022.4709	7.87E-022.4714	8.12E-022.4719	0.08340812.4724	8.53E-022.4728	8.70E-022.4733	8.85E-022.4738	9.00E-022.4743	9.15E-022.4748	9.30E-022.4752	9.46E-022.4757	9.64E-022.4762	9.82E-022.4767	0.10016522.4772	0.10215042.4776	0.10417632.4781	0.10622482.4786	0.10827762.4791	0.11031642.4796	0.1123262.48	0.11430572.4805	0.11625942.481	0.11819122.4815	0.1201052.482	0.12200482.4824	0.12389452.4829	0.1257782.4834	0.12765942.4839	0.12954252.4844	0.13142992.4848	0.13332432.4853	0.13522782.4858	0.13714312.4863	0.13907252.4868	0.14101842.4872	0.14298332.4877	0.14496952.4882	0.14697812.4887	0.14899992.4892	0.15102122.4896	0.15302852.4901	0.1550082.4906	0.15694622.4911	0.15882932.4916	0.16064372.492	0.16237592.4925	0.16401672.493	0.16559762.4935	0.16717062.494	0.16878792.4944	0.17050152.4949	0.17236372.4954	0.17442672.4959	0.17674252.4964	0.17936352.4969	0.18233572.4973	0.18564292.4978	0.18923142.4983	0.1930472.4988	0.19703552.4993	0.20114272.4997	0.20531422.5002	0.20949612.5007	0.21363392.5012	0.21767692.5017	0.22161782.5021	0.22547992.5026	0.22928712.5031	0.23306322.5036	0.23683222.5041	0.24061782.5045	0.24444412.505	0.24833482.5055	0.25231182.506	0.25636252.5065	0.26044652.5069	0.26452242.5074	0.26854892.5079	0.27248472.5084	0.27628852.5089	0.27991912.5093	0.28333512.5098	0.28649622.5103	0.28938262.5108	0.29199412.5113	0.29433112.5117	0.29639412.5122	0.29818362.5127	0.29970012.5132	0.30094392.5137	0.30191572.5141	0.30261652.5146	0.30306522.5151	0.30330022.5156	0.30336092.5161	0.30328672.5165	0.3031172.517	0.30289132.5175	0.30264892.518	0.30242932.5185	0.30227132.5189	0.30218992.5194	0.30216982.5199	0.30219372.5204	0.30224432.5209	0.30230432.5213	0.30235632.5218	0.30238312.5223	0.30236722.5228	0.30229182.5233	0.30215772.5237	0.30199262.5242	0.30182642.5247	0.30168882.5252	0.30160982.5257	0.30161932.5261	0.3017472.5266	0.30202292.5271	0.30247632.5276	0.30309152.5281	0.30377432.5285	0.30442262.529	0.30493432.5295	0.30520732.53	0.30513942.5305	0.30462862.5309	0.30357272.5314	0.301872.5319	0.2994792.5324	0.29648182.5329	0.29297512.5333	0.2890562.5338	0.28482152.5343	0.28036862.5348	0.27579432.5353	0.27119552.5357	0.26666912.5362	0.26228522.5367	0.25804912.5372	0.25395662.5377	0.25000352.5381	0.24618562.5386	0.24249872.5391	0.23893852.5396	0.23550092.5401	0.23218172.5405	0.22895912.541	0.22576182.5415	0.22250972.542	0.21912262.5425	0.21552042.5429	0.2116232.5434	0.20735022.5439	0.20262192.5444	0.19735812.5449	0.19150272.5453	0.18508182.5458	0.17813822.5463	0.17071532.5468	0.16285592.5473	0.15460332.5477	0.14600042.5482	0.13709042.5487	0.12791632.5492	0.11852212.5497	0.10895562.5501	0.09926532.5506	8.95E-022.5511	7.97E-022.5516	6.99E-022.5521	6.02E-022.5526	5.07E-022.553	0.04124752.5535	3.21E-022.554	2.31E-022.5545	1.45E-022.555	6.21E-032.5554	-0.00168232.5559	-9.13E-032.5564	-1.61E-022.5569	-2.25E-022.5574	-2.84E-022.5578	-3.37E-022.5583	-3.84E-022.5588	-4.27E-022.5593	-4.66E-022.5598	-5.02E-022.5602	-5.36E-022.5607	-5.69E-022.5612	-6.01E-022.5617	-6.34E-022.5622	-6.68E-022.5626	-7.03E-022.5631	-7.39E-022.5636	-7.77E-022.5641	-8.16E-022.5646	-8.55E-022.565	-8.96E-022.5655	-9.37E-022.566	-9.79E-022.5665	-0.10208772.567	-0.10633772.5674	-0.11056132.5679	-0.11471442.5684	-0.11875262.5689	-0.12263162.5694	-0.12630722.5698	-0.12973512.5703	-0.13287112.5708	-0.13567612.5713	-0.13816522.5718	-0.14038412.5722	-0.14237892.5727	-0.14419572.5732	-0.14588082.5737	-0.14748022.5742	-0.14904012.5746	-0.15060672.5751	-0.15222392.5756	-0.15391012.5761	-0.1556662.5766	-0.15749212.577	-0.15938912.5775	-0.16135732.578	-0.16339742.5785	-0.16550982.579	-0.1676952.5794	-0.1699522.5799	-0.17225342.5804	-0.17455162.5809	-0.17679822.5814	-0.17894522.5818	-0.18094422.5823	-0.18274712.5828	-0.18430552.5833	-0.18557132.5838	-0.18649882.5842	-0.18709232.5847	-0.18740172.5852	-0.18747862.5857	-0.18737462.5862	-0.18714142.5866	-0.18683042.5871	-0.18649342.5876	-0.18618182.5881	-0.18594612.5886	-0.18580452.589	-0.18574142.5895	-0.18573942.59	-0.18578122.5905	-0.18584942.591	-0.18592682.5914	-0.1859962.5919	-0.18603972.5924	-0.1860412.5929	-0.18599792.5934	-0.18592722.5938	-0.18584632.5943	-0.18577322.5948	-0.18572542.5953	-0.18572072.5958	-0.18577682.5962	-0.18591132.5967	-0.18614162.5972	-0.18645682.5977	-0.18680682.5982	-0.18713792.5986	-0.18739662.5991	-0.18752952.5996	-0.1874832.6001	-0.18720362.6006	-0.18663782.601	-0.18573262.6015	-0.18447332.602	-0.18290922.6025	-0.18109582.603	-0.17908862.6034	-0.17694312.6039	-0.17471492.6044	-0.17245942.6049	-0.17023212.6054	-0.16808842.6059	-0.16605752.6063	-0.16411772.6068	-0.16224132.6073	-0.16040062.6078	-0.15856792.6083	-0.15671562.6087	-0.15481592.6092	-0.15284122.6097	-0.15076392.6102	-0.1485792.6107	-0.14633462.6111	-0.14408592.6116	-0.14188812.6121	-0.13979642.6126	-0.13786622.6131	-0.13615272.6135	-0.13471122.614	-0.13359692.6145	-0.13283922.615	-0.13239752.6155	-0.13221922.6159	-0.13225192.6164	-0.13244292.6169	-0.13273972.6174	-0.13308982.6179	-0.13344062.6183	-0.13373962.6188	-0.13394792.6193	-0.13407082.6198	-0.13412222.6203	-0.13411632.6207	-0.13406722.6212	-0.1339892.6217	-0.13389562.6222	-0.13380122.6227	-0.13371992.6231	-0.13366272.6236	-0.13362852.6241	-0.13361382.6246	-0.13361462.6251	-0.13362722.6255	-0.13364782.626	-0.13367272.6265	-0.1336982.627	-0.13372012.6275	-0.13373572.6279	-0.13374522.6284	-0.13374932.6289	-0.13374932.6294	-0.1337462.6299	-0.13374062.6303	-0.1337342.6308	-0.13372732.6313	-0.13372142.6318	-0.13371732.6323	-0.13371492.6327	-0.1337142.6332	-0.13371412.6337	-0.13371512.6342	-0.13371652.6347	-0.13371822.6351	-0.13371972.6356	-0.13372082.6361	-0.13372122.6366	-0.1337212.6371	-0.13372042.6375	-0.13371972.638	-0.13371892.6385	-0.13371842.639	-0.13371832.6395	-0.1337192.6399	-0.13372042.6404	-0.1337232.6409	-0.13372622.6414	-0.13372962.6419	-0.13373262.6423	-0.13373472.6428	-0.13373542.6433	-0.13373412.6438	-0.13373032.6443	-0.13372342.6447	-0.13371312.6452	-0.13370042.6457	-0.13368742.6462	-0.13367592.6467	-0.13366792.6471	-0.13366532.6476	-0.13367012.6481	-0.13368422.6486	-0.13370962.6491	-0.13374772.6495	-0.13379492.65	-0.13384382.6505	-0.13388732.651	-0.13391812.6515	-0.1339292.6519	-0.13391282.6524	-0.13386222.6529	-0.133772.6534	-0.13363012.6539	-0.13345542.6543	-0.13327242.6548	-0.13310822.6553	-0.13298962.6558	-0.13294392.6563	-0.13299792.6567	-0.13317862.6572	-0.13351312.6577	-0.13402482.6582	-0.13467212.6587	-0.1353562.6591	-0.13597582.6596	-0.13643072.6601	-0.13661992.6606	-0.13644272.6611	-0.13579822.6616	-0.13458572.662	-0.13270822.6625	-0.13016162.663	-0.1270362.6635	-0.1234262.664	-0.1194262.6644	-0.11513062.6649	-0.11063422.6654	-0.10603142.6659	-0.10141662.6664	-9.69E-022.6668	-9.25E-022.6673	-8.82E-022.6678	-8.41E-022.6683	-8.02E-022.6688	-0.0763592.6692	-7.27E-022.6697	-6.92E-022.6702	-6.59E-022.6707	-6.28E-022.6712	-5.98E-022.6716	-5.68E-022.6721	-0.05372282.6726	-0.05044352.6731	-4.68E-022.6736	-4.28E-022.674	-3.83E-022.6745	-3.31E-022.675	-2.71E-022.6755	-2.03E-022.676	-1.30E-022.6764	-5.12E-032.6769	3.02E-032.6774	1.13E-022.6779	1.95E-022.6784	2.76E-022.6788	3.53E-022.6793	4.25E-022.6798	4.91E-022.6803	0.05525562.6808	6.10E-022.6812	6.65E-022.6817	7.19E-022.6822	7.72E-022.6827	8.26E-022.6832	8.83E-022.6836	9.43E-022.6841	0.10060012.6846	0.10716072.6851	0.11378482.6856	0.12031082.686	0.12657692.6865	0.13242142.687	0.13768262.6875	0.14219872.688	0.14580832.6884	0.14841652.6889	0.15010332.6894	0.15097692.6899	0.15114542.6904	0.15071682.6908	0.14979922.6913	0.14850092.6918	0.14692992.6923	0.14519422.6928	0.14338132.6932	0.14151452.6937	0.13960452.6942	0.13766242.6947	0.1356992.6952	0.13372542.6956	0.13175232.6961	0.12979072.6966	0.12785162.6971	0.12594192.6976	0.12405392.698	0.12217672.6985	0.12029942.699	0.11841092.6995	0.11650022.7	0.11455652.7004	0.11256882.7009	0.1105262.7014	0.10842392.7019	0.10628742.7024	0.10414962.7028	0.10204342.7033	0.10000182.7038	9.81E-022.7043	0.0962442.7048	9.46E-022.7052	9.31E-022.7057	9.19E-022.7062	9.08E-022.7067	8.97E-022.7072	8.84E-022.7076	8.69E-022.7081	0.08508692.7086	8.28E-022.7091	0.07983192.7096	7.62E-022.71	7.17E-022.7105	6.65E-022.711	6.08E-022.7115	5.47E-022.712	4.83E-022.7124	0.04197362.7129	3.57E-022.7134	2.98E-022.7139	2.43E-022.7144	1.94E-022.7148	1.51E-022.7153	1.12E-022.7158	7.63E-032.7163	4.21E-032.7168	8.20E-042.7173	-2.67E-032.7177	-6.39E-032.7182	-1.05E-022.7187	-1.51E-022.7192	-2.01E-022.7197	-2.55E-022.7201	-3.13E-022.7206	-3.73E-022.7211	-4.34E-022.7216	-4.97E-022.7221	-5.59E-022.7225	-6.20E-022.723	-6.80E-022.7235	-7.38E-022.724	-7.96E-022.7245	-8.52E-022.7249	-9.09E-022.7254	-9.65E-022.7259	-0.10220972.7264	-0.10802312.7269	-0.11398492.7273	-0.12013292.7278	-0.12642912.7283	-0.13278012.7288	-0.13909152.7293	-0.14526872.7297	-0.15121732.7302	-0.15684262.7307	-0.16205042.7312	-0.1667462.7317	-0.17083942.7321	-0.1743172.7326	-0.17722972.7331	-0.17963052.7336	-0.18157232.7341	-0.1831082.7345	-0.18429062.735	-0.1851732.7355	-0.18580812.736	-0.18624832.7365	-0.18653172.7369	-0.18668242.7374	-0.18672392.7379	-0.18667972.7384	-0.18657352.7389	-0.18642872.7393	-0.18626892.7398	-0.18611762.7403	-0.18599792.7408	-0.18591972.7413	-0.18587732.7417	-0.18586462.7422	-0.18587512.7427	-0.18590282.7432	-0.18594122.7437	-0.1859842.7441	-0.18602512.7446	-0.18605812.7451	-0.186082.7456	-0.18609232.7461	-0.18609652.7465	-0.18609432.747	-0.18608732.7475	-0.18607712.748	-0.18606532.7485	-0.18605352.7489	-0.18604342.7494	-0.18603592.7499	-0.18603092.7504	-0.18602822.7509	-0.18602752.7513	-0.18602872.7518	-0.18603172.7523	-0.18603612.7528	-0.18604172.7533	-0.18604842.7537	-0.18605582.7542	-0.18606312.7547	-0.18606942.7552	-0.1860742.7557	-0.1860762.7561	-0.18607472.7566	-0.18606922.7571	-0.18605872.7576	-0.18604242.7581	-0.18602082.7585	-0.18599692.759	-0.18597422.7595	-0.18595622.76	-0.18594632.7605	-0.1859482.7609	-0.18596482.7614	-0.1862.7619	-0.18605722.7624	-0.18613552.7629	-0.18622362.7633	-0.18630842.7638	-0.1863772.7643	-0.18641642.7648	-0.18641352.7653	-0.18635542.7657	-0.1862292.7662	-0.18602142.7667	-0.18573322.7672	-0.18540552.7677	-0.18508692.7681	-0.1848262.7686	-0.18467142.7691	-0.18467152.7696	-0.1848752.7701	-0.18533052.7706	-0.18608642.771	-0.18717462.7715	-0.18856752.772	-0.19022472.7725	-0.19210582.773	-0.19417032.7734	-0.19637782.7739	-0.19868792.7744	-0.201062.7749	-0.20345392.7754	-0.20583112.7758	-0.20816172.7763	-0.21041812.7768	-0.21257272.7773	-0.21459782.7778	-0.21646582.7782	-0.21814912.7787	-0.21962012.7792	-0.2208512.7797	-0.22180072.7802	-0.22235962.7806	-0.22239692.7811	-0.22178222.7816	-0.22038472.7821	-0.21807372.7826	-0.21471872.783	-0.21018882.7835	-0.20435362.784	-0.19707972.7845	-0.18821892.785	-0.17761722.7854	-0.16512092.7859	-0.15057592.7864	-0.13382852.7869	-0.11472482.7874	-9.31E-022.7878	-6.88E-022.7883	-4.18E-022.7888	-0.01214192.7893	1.98E-022.7898	5.36E-022.7902	0.08903532.7907	0.12577022.7912	0.16346982.7917	0.20181042.7922	0.24046812.7926	0.27913322.7931	0.31761762.7936	0.35579482.7941	0.39353942.7946	0.43072542.795	0.46722722.7955	0.5029192.796	0.53767512.7965	0.57136962.797	0.60386732.7974	0.63493032.7979	0.66425962.7984	0.69155592.7989	0.71651932.7994	0.73885032.7998	0.75824932.8003	0.77441662.8008	0.78705252.8013	0.79589122.8018	0.80110242.8022	0.8031592.8027	0.80254022.8032	0.79972512.8037	0.79519282.8042	0.78942252.8046	0.78289322.8051	0.77608422.8056	0.76945672.8061	0.76318382.8066	0.75720432.807	0.75145032.8075	0.7458542.808	0.74034762.8085	0.73486322.809	0.7293332.8094	0.7236892.8099	0.71786682.8104	0.71187182.8109	0.70577532.8114	0.69965112.8118	0.69357312.8123	0.68761532.8128	0.68185162.8133	0.67635582.8138	0.67120192.8142	0.66645882.8147	0.66205762.8152	0.65777852.8157	0.65339352.8162	0.64867492.8166	0.64339492.8171	0.63732572.8176	0.63023952.8181	0.62190872.8186	0.61210612.819	0.60063822.8195	0.58735382.82	0.57210432.8205	0.55474152.821	0.53511692.8214	0.51308182.8219	0.48848822.8224	0.46118732.8229	0.43103372.8234	0.39803652.8238	0.3624352.8243	0.32448752.8248	0.28445252.8253	0.24258812.8258	0.19915262.8263	0.15440422.8267	0.10860142.8272	6.20E-022.8277	1.50E-022.8282	-3.20E-022.8287	-7.84E-022.8291	-0.12370392.8296	-0.16735872.8301	-0.20885812.8306	-0.24767892.8311	-0.28329762.8315	-0.31519262.832	-0.34307352.8325	-0.36712172.833	-0.38757622.8335	-0.40467582.8339	-0.41865942.8344	-0.42976572.8349	-0.43823382.8354	-0.44430242.8359	-0.44821062.8363	-0.45020592.8368	-0.45055742.8373	-0.44953712.8378	-0.44741712.8383	-0.44446952.8387	-0.44096622.8392	-0.43717952.8397	-0.43338132.8402	-0.42984362.8407	-0.42676182.8411	-0.42411442.8416	-0.42184142.8421	-0.41988292.8426	-0.41817922.8431	-0.41667052.8435	-0.41529692.844	-0.41399852.8445	-0.41271552.845	-0.41139352.8455	-0.40999592.8459	-0.408492.8464	-0.4068432.8469	-0.40502242.8474	-0.40299522.8479	-0.40072882.8483	-0.39819042.8488	-0.39534742.8493	-0.39218072.8498	-0.38872672.8503	-0.38503512.8507	-0.38115612.8512	-0.37713942.8517	-0.37303522.8522	-0.36889342.8527	-0.36476382.8531	-0.36069642.8536	-0.35673072.8541	-0.35285522.8546	-0.34904382.8551	-0.34527012.8555	-0.3415082.856	-0.33773112.8565	-0.33391312.857	-0.33002782.8575	-0.32604892.8579	-0.32195962.8584	-0.31779612.8589	-0.31361352.8594	-0.30946712.8599	-0.30541192.8603	-0.30150312.8608	-0.29779572.8613	-0.29434492.8618	-0.29120592.8623	-0.28842342.8627	-0.28597322.8632	-0.28380192.8637	-0.28185612.8642	-0.28008252.8647	-0.27842762.8651	-0.27683822.8656	-0.27526072.8661	-0.27364192.8666	-0.27193372.8671	-0.27013222.8675	-0.26825452.868	-0.26631842.8685	-0.26434142.869	-0.26234092.8695	-0.26033472.8699	-0.25834012.8704	-0.25637492.8709	-0.25445442.8714	-0.25257372.8719	-0.25071622.8723	-0.24886492.8728	-0.24700312.8733	-0.24511392.8738	-0.24318052.8743	-0.2411862.8747	-0.23911372.8752	-0.23694972.8757	-0.23471812.8762	-0.23246822.8767	-0.23024972.8771	-0.22811252.8776	-0.22610632.8781	-0.22428092.8786	-0.22268612.8791	-0.22137162.8795	-0.22038412.88	-0.21972122.8805	-0.21934252.881	-0.21920662.8815	-0.2192722.882	-0.21949732.8824	-0.21984112.8829	-0.22026192.8834	-0.22071832.8839	-0.22116922.8844	-0.2215822.8848	-0.22193172.8853	-0.22219322.8858	-0.22234182.8863	-0.22235262.8868	-0.22220092.8872	-0.22186172.8877	-0.22131022.8882	-0.2205222.8887	-0.21948442.8892	-0.21819662.8896	-0.21665882.8901	-0.21487082.8906	-0.21283262.8911	-0.21054432.8916	-0.20800582.892	-0.20521722.8925	-0.20217862.893	-0.19890122.8935	-0.19540892.894	-0.19172682.8944	-0.18787972.8949	-0.18389252.8954	-0.17979022.8959	-0.17559762.8964	-0.17133972.8968	-0.16704162.8973	-0.16273452.8978	-0.15845912.8983	-0.15425632.8988	-0.15016752.8992	-0.14623372.8997	-0.14249622.9002	-0.1389962.9007	-0.13577442.9012	-0.13287212.9016	-0.13029832.9021	-0.12800922.9026	-0.1259562.9031	-0.124092.9036	-0.12236242.904	-0.12072452.9045	-0.11912752.905	-0.11752262.9055	-0.11586132.906	-0.11411422.9064	-0.11229012.9069	-0.1104022.9074	-0.10846292.9079	-0.1064862.9084	-0.10448432.9088	-0.10247082.9093	-0.10045872.9098	-9.85E-022.9103	-0.09648612.9108	-9.45E-022.9112	-9.26E-022.9117	-9.07E-022.9122	-8.88E-022.9127	-8.69E-022.9132	-8.50E-022.9136	-8.31E-022.9141	-8.11E-022.9146	-7.92E-022.9151	-7.73E-022.9156	-7.54E-022.916	-7.35E-022.9165	-7.15E-022.917	-6.96E-022.9175	-6.77E-022.918	-6.57E-022.9184	-6.38E-022.9189	-6.19E-022.9194	-6.00E-022.9199	-5.80E-022.9204	-5.61E-022.9208	-5.42E-022.9213	-5.22E-022.9218	-5.03E-022.9223	-4.84E-022.9228	-4.65E-022.9232	-4.46E-022.9237	-4.26E-022.9242	-4.07E-022.9247	-3.88E-022.9252	-3.69E-022.9256	-3.50E-022.9261	-3.30E-022.9266	-3.11E-022.9271	-2.92E-022.9276	-2.72E-022.928	-2.53E-022.9285	-2.33E-022.929	-0.02135732.9295	-1.94E-022.93	-0.0174912.9304	-0.01557882.9309	-1.37E-022.9314	-1.18E-022.9319	-9.97E-032.9324	-8.14E-032.9328	-6.30E-032.9333	-4.46E-032.9338	-2.59E-032.9343	-6.70E-042.9348	1.30E-032.9353	3.34E-032.9357	5.47E-032.9362	7.68E-032.9367	9.96E-032.9372	1.22E-022.9377	1.45E-022.9381	1.66E-022.9386	1.86E-022.9391	2.03E-022.9396	2.18E-022.9401	2.30E-022.9405	2.39E-022.941	0.02440342.9415	2.46E-022.942	2.47E-022.9425	2.45E-022.9429	2.42E-022.9434	2.39E-022.9439	2.36E-022.9444	2.33E-022.9449	2.31E-022.9453	0.02306372.9458	2.31E-022.9463	2.31E-022.9468	2.32E-022.9473	2.33E-022.9477	2.33E-022.9482	2.34E-022.9487	2.33E-022.9492	2.31E-022.9497	2.29E-022.9501	2.27E-022.9506	2.24E-022.9511	2.22E-022.9516	2.21E-022.9521	2.22E-022.9525	2.25E-022.953	0.02298372.9535	2.38E-022.954	2.48E-022.9545	2.58E-022.9549	2.67E-022.9554	2.74E-022.9559	2.77E-022.9564	2.74E-022.9569	2.63E-022.9573	2.44E-022.9578	2.15E-022.9583	1.75E-022.9588	1.27E-022.9593	7.19E-032.9597	1.11E-032.9602	-5.38E-032.9607	-1.21E-022.9612	-1.89E-022.9617	-2.57E-022.9621	-3.23E-022.9626	-3.86E-022.9631	-0.04459772.9636	-0.05045172.9641	-5.62E-022.9645	-6.17E-022.965	-6.73E-022.9655	-7.28E-022.966	-7.83E-022.9665	-8.38E-022.9669	-0.08945562.9674	-9.51E-022.9679	-0.10089582.9684	-0.10668542.9689	-0.11250822.9693	-0.11835432.9698	-0.12421362.9703	-0.13007622.9708	-0.13593232.9713	-0.14177542.9717	-0.14760372.9722	-0.15341562.9727	-0.15920972.9732	-0.16498452.9737	-0.17073852.9741	-0.17647022.9746	-0.18217812.9751	-0.18786082.9756	-0.19352332.9761	-0.19918052.9765	-0.20484832.977	-0.21054272.9775	-0.21627962.978	-0.22207492.9785	-0.22794452.9789	-0.23390452.9794	-0.23997032.9799	-0.24613262.9804	-0.25233442.9809	-0.25851352.9813	-0.26460772.9818	-0.27055482.9823	-0.27629272.9828	-0.28175922.9833	-0.28689212.9837	-0.29162942.9842	-0.29595322.9847	-0.29994232.9852	-0.30368882.9857	-0.30728462.9861	-0.31082162.9866	-0.31439172.9871	-0.3180872.9876	-0.32199922.9881	-0.32622022.9885	-0.33077812.989	-0.33553462.9895	-0.34032512.99	-0.34498492.9905	-0.34934922.991	-0.35325332.9914	-0.35653262.9919	-0.35902232.9924	-0.36055762.9929	-0.36104022.9934	-0.36057552.9938	-0.35930792.9943	-0.3573822.9948	-0.35494222.9953	-0.3521332.9958	-0.34909912.9962	-0.34598482.9967	-0.34293472.9972	-0.34006862.9977	-0.33741632.9982	-0.33498692.9986	-0.33278952.9991	-0.33083332.9996	-0.32912733.0001	-0.32768083.0006	-0.32650273.001	-0.32560243.0015	-0.32498123.002	-0.3246083.0025	-0.32444263.003	-0.32444493.0034	-0.32457453.0039	-0.32479143.0044	-0.32505543.0049	-0.32532623.0054	-0.32556383.0058	-0.32573443.0063	-0.32583793.0068	-0.32588523.0073	-0.32588683.0078	-0.32585383.0082	-0.32579673.0087	-0.32572643.0092	-0.32565373.0097	-0.32558933.0102	-0.32554263.0106	-0.3255143.0111	-0.32550073.0116	-0.32549973.0121	-0.32550813.0126	-0.32552323.013	-0.32554183.0135	-0.32556123.014	-0.32557843.0145	-0.32559093.015	-0.32559843.0154	-0.32560173.0159	-0.32560183.0164	-0.32559933.0169	-0.32559533.0174	-0.32559063.0178	-0.32558593.0183	-0.32558213.0188	-0.325583.0193	-0.32557963.0198	-0.32558033.0202	-0.32558173.0207	-0.32558333.0212	-0.32558473.0217	-0.32558533.0222	-0.32558473.0226	-0.32558253.0231	-0.32557823.0236	-0.32557233.0241	-0.3255663.0246	-0.32556013.025	-0.32555583.0255	-0.3255543.026	-0.3255563.0265	-0.32556263.027	-0.3255753.0274	-0.3255943.0279	-0.32561783.0284	-0.32564283.0289	-0.32566523.0294	-0.32568143.0298	-0.32568753.0303	-0.32567993.0308	-0.3256553.0313	-0.32560883.0318	-0.32553843.0322	-0.32544963.0327	-0.3253563.0332	-0.32527133.0337	-0.32520953.0342	-0.32518423.0346	-0.32520943.0351	-0.32529883.0356	-0.32546623.0361	-0.32572413.0366	-0.32605313.037	-0.32640313.0375	-0.32672243.038	-0.32695963.0385	-0.32706313.039	-0.32698133.0394	-0.32666293.0399	-0.32605623.0404	-0.32511143.0409	-0.32382443.0414	-0.3222443.0418	-0.32042173.0423	-0.31840883.0428	-0.3162573.0433	-0.31401773.0438	-0.31174243.0442	-0.30948253.0447	-0.30728893.0452	-0.30518573.0457	-0.30316193.0462	-0.30120383.0467	-0.29929793.0471	-0.29743063.0476	-0.29558843.0481	-0.29375773.0486	-0.29192493.0491	-0.29007663.0495	-0.28820543.05	-0.28631323.0505	-0.28440293.051	-0.28247713.0515	-0.28053863.0519	-0.27859033.0524	-0.27663483.0529	-0.27467483.0534	-0.27271333.0539	-0.27075283.0543	-0.26879593.0548	-0.26684513.0553	-0.26490293.0558	-0.26297193.0563	-0.26105453.0567	-0.25915323.0572	-0.25727063.0577	-0.25540923.0582	-0.25356693.0587	-0.25173223.0591	-0.24989213.0596	-0.24803393.0601	-0.24614473.0606	-0.24421173.0611	-0.2422223.0615	-0.24016293.062	-0.23802153.0625	-0.2358013.063	-0.23354413.0635	-0.23129963.0639	-0.22911643.0644	-0.22704323.0649	-0.2251293.0654	-0.22342253.0659	-0.22197263.0663	-0.22082813.0668	-0.22001763.0673	-0.21951033.0678	-0.21926473.0683	-0.21923893.0687	-0.21939133.0692	-0.21968033.0697	-0.22006423.0702	-0.22050133.0707	-0.22094993.0711	-0.2213723.0716	-0.22174173.0721	-0.22203633.0726	-0.22223283.0731	-0.22230813.0735	-0.22223953.074	-0.22200393.0745	-0.22157833.075	-0.22093993.0755	-0.22006833.0759	-0.21895323.0764	-0.21758753.0769	-0.21596363.0774	-0.21407423.0779	-0.2119123.0783	-0.20946963.0788	-0.20673953.0793	-0.20371453.0798	-0.20039523.0803	-0.19682173.0807	-0.19304653.0812	-0.1891223.0817	-0.18510063.0822	-0.18103483.0827	-0.1769773.0831	-0.17297973.0836	-0.16909523.0841	-0.16536343.0846	-0.16175013.0851	-0.15819373.0855	-0.15463273.086	-0.15100553.0865	-0.14725063.087	-0.14330643.0875	-0.13911153.0879	-0.13460433.0884	-0.12973343.0889	-0.12452033.0894	-0.11901773.0899	-0.11327853.0903	-0.10735563.0908	-0.10130193.0913	-9.52E-023.0918	-8.90E-023.0923	-8.29E-023.0927	-7.68E-023.0932	-7.09E-023.0937	-6.50E-023.0942	-5.92E-023.0947	-5.34E-023.0951	-4.77E-023.0956	-4.20E-023.0961	-3.64E-023.0966	-3.08E-023.0971	-2.52E-023.0975	-0.01956213.098	-1.39E-023.0985	-8.29E-033.099	-2.59E-033.0995	3.18E-033.1	9.03E-033.1004	0.01497653.1009	2.10E-023.1014	2.72E-023.1019	3.35E-023.1024	3.98E-023.1028	4.60E-023.1033	5.21E-023.1038	5.80E-023.1043	6.36E-023.1048	6.89E-023.1052	0.07370473.1057	7.80E-023.1062	8.19E-023.1067	8.55E-023.1072	8.89E-023.1076	9.22E-023.1081	9.57E-023.1086	9.94E-023.1091	0.10347193.1096	0.1080583.11	0.11328863.1105	0.11912833.111	0.12538643.1115	0.13186593.112	0.138373.1124	0.14470183.1129	0.15066433.1134	0.15606083.1139	0.16069433.1144	0.16437273.1148	0.16703323.1153	0.16875493.1158	0.16962413.1163	0.16972693.1168	0.16914973.1172	0.16797853.1177	0.16629973.1182	0.16419963.1187	0.16176323.1192	0.15903663.1196	0.15601573.1201	0.15269333.1206	0.14906213.1211	0.14511493.1216	0.14084443.122	0.13624333.1225	0.13130433.123	0.1260213.1235	0.12042123.124	0.11458453.1244	0.10859453.1249	0.10253493.1254	9.65E-023.1259	9.05E-023.1264	8.48E-023.1268	7.93E-023.1273	7.41E-023.1278	6.94E-023.1283	0.06493583.1288	6.08E-023.1292	5.70E-023.1297	5.33E-023.1302	4.98E-023.1307	0.04647943.1312	4.32E-023.1316	3.99E-023.1321	3.67E-023.1326	3.33E-023.1331	2.99E-023.1336	2.63E-023.134	2.26E-023.1345	1.86E-023.135	1.44E-023.1355	9.82E-033.136	4.93E-033.1364	-3.29E-043.1369	-5.88E-033.1374	-1.17E-023.1379	-1.76E-023.1384	-2.36E-023.1388	-2.97E-023.1393	-3.57E-023.1398	-4.15E-023.1403	-4.72E-023.1408	-5.26E-023.1412	-5.77E-023.1417	-6.24E-023.1422	-0.06676333.1427	-0.07070693.1432	-7.42E-023.1436	-7.72E-023.1441	-7.96E-023.1446	-8.15E-023.1451	-8.28E-023.1456	-8.35E-023.146	-0.08384223.1465	-8.38E-023.147	-8.35E-023.1475	-0.08303753.148	-0.08246853.1484	-8.19E-023.1489	-8.14E-023.1494	-8.10E-023.1499	-8.08E-023.1504	-0.08074193.1508	-8.07E-023.1513	-8.08E-023.1518	-8.09E-023.1523	-8.11E-023.1528	-8.13E-023.1532	-8.14E-023.1537	-8.15E-023.1542	-8.15E-023.1547	-8.16E-023.1552	-8.16E-023.1557	-8.16E-023.1561	-8.15E-023.1566	-8.15E-023.1571	-8.14E-023.1576	-8.14E-023.1581	-8.14E-023.1585	-8.14E-023.159	-8.13E-023.1595	-8.13E-023.16	-8.14E-023.1605	-8.14E-023.1609	-8.14E-023.1614	-8.14E-023.1619	-8.14E-023.1624	-8.14E-023.1629	-0.08140553.1633	-8.14E-023.1638	-8.14E-023.1643	-8.14E-023.1648	-8.14E-023.1653	-0.08140133.1657	-8.14E-023.1662	-8.14E-023.1667	-8.14E-023.1672	-8.14E-023.1677	-8.14E-023.1681	-8.14E-023.1686	-8.14E-023.1691	-8.14E-023.1696	-8.14E-023.1701	-8.14E-023.1705	-8.14E-023.171	-8.14E-023.1715	-8.14E-023.172	-8.14E-023.1725	-8.14E-023.1729	-8.14E-023.1734	-8.14E-023.1739	-8.14E-023.1744	-8.14E-023.1749	-8.14E-023.1753	-8.14E-023.1758	-8.14E-023.1763	-8.14E-023.1768	-8.14E-023.1773	-8.14E-023.1777	-8.14E-023.1782	-8.14E-023.1787	-8.14E-023.1792	-8.14E-023.1797	-8.14E-023.1801	-8.14E-023.1806	-0.08136313.1811	-8.14E-023.1816	-8.13E-023.1821	-8.13E-023.1825	-8.13E-023.183	-8.14E-023.1835	-8.14E-023.184	-0.08141683.1845	-8.15E-023.1849	-8.15E-023.1854	-8.16E-023.1859	-0.08159113.1864	-8.16E-023.1869	-8.16E-023.1873	-8.15E-023.1878	-8.15E-023.1883	-8.13E-023.1888	-8.12E-023.1893	-8.10E-023.1897	-8.08E-023.1902	-8.07E-023.1907	-8.06E-023.1912	-0.08065313.1917	-8.08E-023.1921	-8.11E-023.1926	-8.16E-023.1931	-8.23E-023.1936	-8.30E-023.1941	-8.36E-023.1945	-8.41E-023.195	-8.43E-023.1955	-8.42E-023.196	-8.36E-023.1965	-8.25E-023.1969	-8.07E-023.1974	-7.81E-023.1979	-7.45E-023.1984	-6.97E-023.1989	-6.37E-023.1993	-0.05603853.1998	-4.67E-023.2003	-3.55E-023.2008	-2.22E-023.2013	-6.61E-033.2017	1.12E-023.2022	3.11E-023.2027	5.28E-023.2032	0.07592233.2037	0.10026583.2041	0.12554353.2046	0.15148043.2051	0.17780133.2056	0.20423173.2061	0.23056163.2065	0.25670693.207	0.28259813.2075	0.30816593.208	0.33334063.2085	0.35805293.2089	0.38223323.2094	0.40581213.2099	0.42872023.2104	0.45090443.2109	0.47234933.2114	0.49304483.2118	0.51298063.2123	0.53214673.2128	0.55053283.2133	0.56812873.2138	0.58492433.2142	0.60090953.2147	0.61610313.2152	0.63060183.2157	0.64451593.2162	0.65795533.2166	0.671033.2171	0.683853.2176	0.69652553.2181	0.70916633.2186	0.72188253.219	0.73475973.2195	0.74780643.22	0.76101493.2205	0.77437793.221	0.78788823.2214	0.80153833.2219	0.81532093.2224	0.82922863.2229	0.8432543.2234	0.8573773.2238	0.87152863.2243	0.88562853.2248	0.89959593.2253	0.91335053.2258	0.92681183.2262	0.93989923.2267	0.95253233.2272	0.96463043.2277	0.976073.2282	0.98653163.2286	0.99564033.2291	1.0030213.2296	1.00833.2301	1.0111013.2306	1.0110513.231	1.0077733.2315	1.0008943.232	0.99013953.2325	0.97577953.233	0.95826753.2334	0.93805663.2339	0.91560013.2344	0.89135143.2349	0.86576363.2354	0.83929013.2358	0.81238423.2363	0.78545093.2368	0.7585843.2373	0.73175353.2378	0.70492943.2382	0.67808153.2387	0.65117943.2392	0.6241933.2397	0.59709223.2402	0.56984663.2406	0.54243583.2411	0.51491433.2416	0.48737173.2421	0.4598983.2426	0.43258293.243	0.40551633.2435	0.37878813.244	0.35248823.2445	0.32670633.245	0.30153263.2454	0.27705933.2459	0.25337993.2464	0.23058783.2469	0.20877643.2474	0.18803923.2478	0.16846973.2483	0.15016123.2488	0.13320733.2493	0.11768063.2498	0.10341433.2502	9.01E-023.2507	7.74E-023.2512	6.50E-023.2517	5.25E-023.2522	3.97E-023.2526	2.63E-023.2531	1.18E-023.2536	-3.97E-033.2541	-2.09E-023.2546	-3.84E-023.255	-5.61E-023.2555	-7.35E-023.256	-9.00E-023.2565	-0.10520553.257	-0.11858743.2574	-0.12965423.2579	-0.13793653.2584	-0.14341543.2589	-0.14646423.2594	-0.14746933.2598	-0.14681733.2603	-0.14489453.2608	-0.14208743.2613	-0.13878243.2618	-0.13536593.2622	-0.13221523.2627	-0.12949243.2632	-0.12714133.2637	-0.12509633.2642	-0.12329143.2647	-0.12166113.2651	-0.12013953.2656	-0.11866083.2661	-0.11715933.2666	-0.11557033.2671	-0.11386583.2675	-0.11206083.268	-0.11017263.2685	-0.10821883.269	-0.10621683.2695	-0.1041843.2699	-0.10213783.2704	-0.10009583.2709	-9.81E-023.2714	-9.61E-023.2719	-9.41E-023.2723	-9.22E-023.2728	-9.03E-023.2733	-8.84E-023.2738	-8.65E-023.2743	-8.46E-023.2747	-8.27E-023.2752	-8.08E-023.2757	-7.89E-023.2762	-0.07699673.2767	-7.51E-023.2771	-7.32E-023.2776	-7.13E-023.2781	-0.06931733.2786	-6.74E-023.2791	-6.54E-023.2795	-6.34E-023.28	-6.14E-023.2805	-5.94E-023.281	-5.75E-023.2815	-5.55E-023.2819	-5.35E-023.2824	-5.16E-023.2829	-4.97E-023.2834	-4.79E-023.2839	-4.62E-023.2843	-4.44E-023.2848	-4.28E-023.2853	-4.11E-023.2858	-3.93E-023.2863	-0.03751673.2867	-3.56E-023.2872	-3.35E-023.2877	-3.12E-023.2882	-2.87E-023.2887	-2.59E-023.2891	-0.02288463.2896	-1.96E-023.2901	-1.60E-023.2906	-1.21E-023.2911	-7.98E-033.2915	-3.54E-033.292	1.22E-033.2925	6.28E-033.293	1.16E-023.2935	1.73E-023.2939	2.30E-023.2944	2.90E-023.2949	3.50E-023.2954	0.0409463.2959	4.69E-023.2963	5.27E-023.2968	5.83E-023.2973	6.37E-023.2978	6.88E-023.2983	0.07357833.2987	7.80E-023.2992	8.20E-023.2997	0.08551613.3002	8.86E-023.3007	9.11E-023.3011	9.30E-023.3016	9.43E-023.3021	0.09507523.3026	9.54E-023.3031	9.54E-023.3035	9.51E-023.304	9.46E-023.3045	9.41E-023.305	9.35E-023.3055	9.31E-023.3059	9.28E-023.3064	9.26E-023.3069	9.26E-023.3074	9.27E-023.3079	9.28E-023.3083	9.30E-023.3088	0.09305953.3093	9.31E-023.3098	9.30E-023.3103	9.29E-023.3107	9.26E-023.3112	9.23E-023.3117	0.09196453.3122	9.18E-023.3127	9.17E-023.3131	9.18E-023.3136	9.22E-023.3141	9.28E-023.3146	9.39E-023.3151	9.53E-023.3155	9.69E-023.316	9.88E-023.3165	0.10089073.317	0.10308743.3175	0.10535593.3179	0.1076433.3184	0.10989573.3189	0.11206523.3194	0.1141443.3199	0.11614583.3204	0.11808453.3208	0.11997433.3213	0.12182913.3218	0.12366293.3223	0.12548963.3228	0.12732343.3232	0.12917723.3237	0.13105433.3242	0.13295223.3247	0.13486783.3252	0.13679843.3256	0.13874113.3261	0.14069323.3266	0.14265173.3271	0.14461393.3276	0.14657693.328	0.1485383.3285	0.15049453.329	0.15244383.3295	0.15438313.33	0.15630993.3304	0.15822133.3309	0.16011493.3314	0.16198783.3319	0.16383793.3324	0.16567153.3328	0.16750183.3333	0.16934243.3338	0.17120683.3343	0.17310863.3348	0.17506133.3352	0.17707843.3357	0.17917333.3362	0.18135843.3367	0.1836143.3372	0.18588993.3376	0.18813493.3381	0.19029733.3386	0.19232583.3391	0.19416893.3396	0.1957753.34	0.19709293.3405	0.19807263.341	0.19871043.3415	0.1990553.342	0.19915783.3424	0.19907033.3429	0.1988443.3434	0.19853053.3439	0.19818113.3444	0.19784743.3448	0.19758013.3453	0.19740343.3458	0.1973063.3463	0.19727433.3468	0.19729453.3472	0.1973533.3477	0.19743623.3482	0.19753043.3487	0.19762193.3492	0.19769713.3496	0.19774893.3501	0.19777943.3506	0.1977923.3511	0.19778973.3516	0.19777573.352	0.19775333.3525	0.19772553.353	0.19769563.3535	0.19766673.354	0.19764123.3544	0.19762033.3549	0.1976053.3554	0.19759613.3559	0.19759483.3564	0.19760193.3568	0.19761853.3573	0.19764553.3578	0.19768393.3583	0.19773233.3588	0.19778423.3592	0.19783263.3597	0.19787033.3602	0.19789033.3607	0.19788553.3612	0.19784883.3616	0.19777313.3621	0.19765133.3626	0.19748543.3631	0.19729923.3636	0.19712023.364	0.19697573.3645	0.19689313.365	0.19689973.3655	0.1970233.366	0.19729033.3664	0.1977293.3669	0.19833733.3674	0.19902853.3679	0.19970013.3684	0.20024973.3688	0.20057513.3693	0.20057373.3698	0.20014323.3703	0.19918123.3708	0.19758533.3712	0.19529193.3717	0.19237223.3722	0.18892673.3727	0.18505593.3732	0.18086053.3736	0.1764413.3741	0.17189793.3746	0.16733183.3751	0.16284333.3756	0.15851383.3761	0.15434573.3765	0.15032053.377	0.14642033.3775	0.14262663.378	0.13892123.3785	0.1352863.3789	0.13170273.3794	0.1281533.3799	0.12461753.3804	0.12107053.3809	0.11748433.3813	0.11383143.3818	0.11008433.3823	0.10621533.3828	