0.000000 1.075095 3
0.003906 1.031029 0
0.007812 0.916540 0
0.011719 0.748307 0
0.015625 0.549199 0
0.019531 0.342897 0
0.023438 0.149521 0
0.027344 -0.016643 0
0.031250 -0.147374 0
0.035156 -0.239553 0
0.039062 -0.293963 0
0.042969 -0.314364 4
0.046875 -0.306833 0
0.050781 -0.279048 0
0.054688 -0.239311 0
0.058594 -0.195373 0
0.062500 -0.153381 0
0.066406 -0.117263 0
0.070312 -0.088692 0
0.074219 -0.067541 0
0.078125 -0.052578 0
0.082031 -0.042145 0
0.085938 -0.034640 0
0.089844 -0.028777 0
0.093750 -0.023647 0
0.097656 -0.018664 0
0.101562 -0.013481 0
0.105469 -0.007896 0
0.109375 -0.001795 0
0.113281 0.004896 0
0.117188 0.012224 0
0.121094 0.020230 0
0.125000 0.028942 0
0.128906 0.038385 0
0.132812 0.048577 0
0.136719 0.059526 0
0.140625 0.071235 0
0.144531 0.083696 0
0.148438 0.096889 0
0.152344 0.110786 0
0.156250 0.125345 0
0.160156 0.140510 0
0.164062 0.156217 0
0.167969 0.172385 0
0.171875 0.188922 0
0.175781 0.205723 0
0.179688 0.222674 0
0.183594 0.239647 0
0.187500 0.256509 0
0.191406 0.273116 0
0.195312 0.289320 0
0.199219 0.304970 0
0.203125 0.319914 0
0.207031 0.333999 0
0.210938 0.347078 0
0.214844 0.359010 0
0.218750 0.369660 0
0.222656 0.378909 0
0.226562 0.386646 0
0.230469 0.392780 0
0.234375 0.397235 0
0.238281 0.399955 0
0.242188 0.400901 5
0.246094 0.400060 0
0.250000 0.397434 0
0.253906 0.393051 0
0.257812 0.386958 0
0.261719 0.379220 0
0.265625 0.369923 0
0.269531 0.359168 0
0.273438 0.347073 0
0.277344 0.333767 0
0.281250 0.319390 0
0.285156 0.304092 0
0.289062 0.288025 0
0.292969 0.271347 0
0.296875 0.254215 0
0.300781 0.236784 0
0.304688 0.219206 0
0.308594 0.201624 0
0.312500 0.184177 0
0.316406 0.166990 0
0.320312 0.150179 0
0.324219 0.133847 0
0.328125 0.118087 0
0.332031 0.102974 0
0.335938 0.088573 0
0.339844 0.074935 0
0.343750 0.062099 0
0.347656 0.050090 0
0.351562 0.038923 0
0.355469 0.028601 0
0.359375 0.019118 0
0.363281 0.010459 0
0.367188 0.002604 0
0.371094 -0.004478 0
0.375000 -0.010818 0
0.378906 -0.016456 0
0.382812 -0.021430 0
0.386719 -0.025785 0
0.390625 -0.029564 0
0.394531 -0.032811 0
0.398438 -0.035571 0
0.402344 -0.037886 0
0.406250 -0.039798 0
0.410156 -0.041347 0
0.414062 -0.042572 0
0.417969 -0.043507 0
0.421875 -0.044187 0
0.425781 -0.044640 0
0.429688 -0.044896 0
0.433594 -0.044980 0
0.437500 -0.044914 0
0.441406 -0.044720 0
0.445312 -0.044416 0
0.449219 -0.044018 0
0.453125 -0.043540 0
0.457031 -0.042994 0
0.460938 -0.042392 0
0.464844 -0.041743 0
0.468750 -0.041055 0
0.472656 -0.040335 0
0.476562 -0.039588 0
0.480469 -0.038819 0
0.484375 -0.038033 0
0.488281 -0.037234 0
0.492188 -0.036385 0
0.496094 -0.035528 0
0.500000 -0.034673 0
0.503906 -0.033819 0
0.507812 -0.032966 0
0.511719 -0.032115 0
0.515625 -0.031265 0
0.519531 -0.030416 0
0.523438 -0.029569 0
0.527344 -0.028723 0
0.531250 -0.027878 0
0.535156 -0.027034 0
0.539062 -0.026192 0
0.542969 -0.025351 0
0.546875 -0.024512 0
0.550781 -0.023674 0
0.554688 -0.022837 0
0.558594 -0.022002 0
0.562500 -0.021168 0
0.566406 -0.020335 0
0.570312 -0.019504 0
0.574219 -0.018674 0
0.578125 -0.017846 0
0.582031 -0.017019 0
0.585938 -0.016194 0
0.589844 -0.015370 0
0.593750 -0.014547 0
0.597656 -0.013726 0
0.601562 -0.012906 0
0.605469 -0.012088 0
0.609375 -0.011272 0
0.613281 -0.010456 0
0.617188 -0.009642 0
0.621094 -0.008830 0
0.625000 -0.008019 0
0.628906 -0.007208 0
0.632812 -0.006399 0
0.636719 -0.005590 0
0.640625 -0.004781 0
0.644531 -0.003972 0
0.648438 -0.003160 0
0.652344 -0.002345 0
0.656250 -0.001523 0
0.660156 -0.000692 0
0.664062 0.000152 0
0.667969 0.001017 0
0.671875 0.001910 0
0.675781 0.002844 0
0.679688 0.003831 0
0.683594 0.004892 0
0.687500 0.006051 0
0.691406 0.007338 0
0.695312 0.008790 0
0.699219 0.010452 0
0.703125 0.012380 0
0.707031 0.014638 0
0.710938 0.017298 0
0.714844 0.020444 0
0.718750 0.024168 0
0.722656 0.028569 0
0.726562 0.033750 0
0.730469 0.039816 0
0.734375 0.046866 0
0.738281 0.054994 0
0.742188 0.064276 0
0.746094 0.074766 0
0.750000 0.086492 0
0.753906 0.099442 0
0.757812 0.113563 0
0.761719 0.128756 0
0.765625 0.144869 0
0.769531 0.161696 0
0.773438 0.178984 0
0.777344 0.196428 0
0.781250 0.213687 0
0.785156 0.230388 0
0.789062 0.246143 0
0.792969 0.260560 0
0.796875 0.273262 0
0.800781 0.283902 0
0.804688 0.292179 0
0.808594 0.297855 0
0.812500 0.300762 0
0.816406 0.300815 1
0.820312 0.298012 0
0.824219 0.292439 0
0.828125 0.284262 0
0.832031 0.273723 0
0.835938 0.261124 0
0.839844 0.246816 0
0.843750 0.231181 0
0.847656 0.214619 0
0.851562 0.197525 0
0.855469 0.180282 0
0.859375 0.163241 0
0.863281 0.146713 0
0.867188 0.130961 0
0.871094 0.116189 0
0.875000 0.102539 0
0.878906 0.090080 0
0.882812 0.078784 0
0.886719 0.068501 0
0.890625 0.058909 0
0.894531 0.049461 0
0.898438 0.039347 0
0.902344 0.027510 0
0.906250 0.012773 0
0.910156 -0.005882 0
0.914062 -0.028893 0
0.917969 -0.055622 0
0.921875 -0.083951 0
0.925781 -0.110115 0
0.929688 -0.128898 0
0.933594 -0.134135 2
0.937500 -0.119383 0
0.941406 -0.078593 0
0.945312 -0.006757 0
0.949219 0.099278 0
0.953125 0.239600 0
0.957031 0.409627 0
0.960938 0.598585 0
0.964844 0.789027 0
0.968750 0.958345 0
0.972656 1.082615 0
0.976562 1.141979 3
0.980469 1.126257 0
0.984375 1.037090 0
0.988281 0.887320 0
0.992188 0.697701 0
0.996094 0.491798 0
1.000000 0.291193 0
1.003906 0.112418 0
1.007812 -0.034012 0
1.011719 -0.143028 0
1.015625 -0.213850 0
1.019531 -0.248953 0
1.023438 -0.253346 4
1.027344 -0.233944 0
1.031250 -0.198751 0
1.035156 -0.155791 0
1.039062 -0.111991 0
1.042969 -0.072343 0
1.046875 -0.039590 0
1.050781 -0.014447 0
1.054688 0.003815 0
1.058594 0.016675 0
1.062500 0.025784 0
1.066406 0.032594 0
1.070312 0.038207 0
1.074219 0.043371 0
1.078125 0.048551 0
1.082031 0.054020 0
1.085938 0.059936 0
1.089844 0.066391 0
1.093750 0.073447 0
1.097656 0.081146 0
1.101562 0.089524 0
1.105469 0.098607 0
1.109375 0.108417 0
1.113281 0.118969 0
1.117188 0.130270 0
1.121094 0.142318 0
1.125000 0.155102 0
1.128906 0.168600 0
1.132812 0.182781 0
1.136719 0.197599 0
1.140625 0.212999 0
1.144531 0.228910 0
1.148438 0.245252 0
1.152344 0.261931 0
1.156250 0.278842 0
1.160156 0.295869 0
1.164062 0.312885 0
1.167969 0.329757 0
1.171875 0.346343 0
1.175781 0.362497 0
1.179688 0.378069 0
1.183594 0.392910 0
1.187500 0.406871 0
1.191406 0.419809 0
1.195312 0.431584 0
1.199219 0.442068 0
1.203125 0.451144 0
1.207031 0.458705 0
1.210938 0.464665 0
1.214844 0.468949 0
1.218750 0.471504 0
1.222656 0.472297 5
1.226562 0.471313 0
1.230469 0.468559 0
1.234375 0.464061 0
1.238281 0.457868 0
1.242188 0.450044 0
1.246094 0.440675 0
1.250000 0.429860 0
1.253906 0.417716 0
1.257812 0.404369 0
1.261719 0.389958 0
1.265625 0.374628 0
1.269531 0.358531 0
1.273438 0.341821 0
1.277344 0.324652 0
1.281250 0.307177 0
1.285156 0.289544 0
1.289062 0.271898 0
1.292969 0.254371 0
1.296875 0.237089 0
1.300781 0.220168 0
1.304688 0.203709 0
1.308594 0.187804 0
1.312500 0.172530 0
1.316406 0.157951 0
1.320312 0.144120 0
1.324219 0.131075 0
1.328125 0.118844 0
1.332031 0.107442 0
1.335938 0.096875 0
1.339844 0.087138 0
1.343750 0.078219 0
1.347656 0.070097 0
1.351562 0.062745 0
1.355469 0.056132 0
1.359375 0.050221 0
1.363281 0.044973 0
1.367188 0.040346 0
1.371094 0.036298 0
1.375000 0.032784 0
1.378906 0.029763 0
1.382812 0.027190 0
1.386719 0.025024 0
1.390625 0.023226 0
1.394531 0.021758 0
1.398438 0.020584 0
1.402344 0.019670 0
1.406250 0.018987 0
1.410156 0.018505 0
1.414062 0.018198 0
1.417969 0.018044 0
1.421875 0.018022 0
1.425781 0.018111 0
1.429688 0.018297 0
1.433594 0.018563 0
1.437500 0.018898 0
1.441406 0.019289 0
1.445312 0.019728 0
1.449219 0.020205 0
1.453125 0.020713 0
1.457031 0.021247 0
1.460938 0.021802 0
1.464844 0.022372 0
1.468750 0.022954 0
1.472656 0.023552 0
1.476562 0.024191 0
1.480469 0.024826 0
1.484375 0.025456 0
1.488281 0.026082 0
1.492188 0.026703 0
1.496094 0.027320 0
1.500000 0.027932 0
1.503906 0.028540 0
1.507812 0.029143 0
1.511719 0.029742 0
1.515625 0.030336 0
1.519531 0.030926 0
1.523438 0.031512 0
1.527344 0.032093 0
1.531250 0.032670 0
1.535156 0.033242 0
1.539062 0.033810 0
1.542969 0.034374 0
1.546875 0.034933 0
1.550781 0.035487 0
1.554688 0.036038 0
1.558594 0.036584 0
1.562500 0.037125 0
1.566406 0.037662 0
1.570312 0.038195 0
1.574219 0.038724 0
1.578125 0.039248 0
1.582031 0.039768 0
1.585938 0.040283 0
1.589844 0.040794 0
1.593750 0.041301 0
1.597656 0.041804 0
1.601562 0.042302 0
1.605469 0.042797 0
1.609375 0.043287 0
1.613281 0.043774 0
1.617188 0.044257 0
1.621094 0.044736 0
1.625000 0.045214 0
1.628906 0.045689 0
1.632812 0.046164 0
1.636719 0.046640 0
1.640625 0.047120 0
1.644531 0.047607 0
1.648438 0.048106 0
1.652344 0.048623 0
1.656250 0.049167 0
1.660156 0.049749 0
1.664062 0.050384 0
1.667969 0.051091 0
1.671875 0.051894 0
1.675781 0.052823 0
1.679688 0.053915 0
1.683594 0.055216 0
1.687500 0.056780 0
1.691406 0.058669 0
1.695312 0.060957 0
1.699219 0.063724 0
1.703125 0.067062 0
1.707031 0.071066 0
1.710938 0.075840 0
1.714844 0.081485 0
1.718750 0.088100 0
1.722656 0.095777 0
1.726562 0.104591 0
1.730469 0.114599 0
1.734375 0.125827 0
1.738281 0.138268 0
1.742188 0.151875 0
1.746094 0.166553 0
1.750000 0.182158 0
1.753906 0.198495 0
1.757812 0.215320 0
1.761719 0.232340 0
1.765625 0.249224 0
1.769531 0.265610 0
1.773438 0.281118 0
1.777344 0.295361 0
1.781250 0.307967 0
1.785156 0.318588 0
1.789062 0.326919 0
1.792969 0.332712 0
1.796875 0.335787 0
1.800781 0.336043 1
1.804688 0.333459 0
1.808594 0.328099 0
1.812500 0.320110 0
1.816406 0.309709 0
1.820312 0.297180 0
1.824219 0.282856 0
1.828125 0.267106 0
1.832031 0.250318 0
1.835938 0.232886 0
1.839844 0.215190 0
1.843750 0.197586 0
1.847656 0.180393 0
1.851562 0.163886 0
1.855469 0.148286 0
1.859375 0.133756 0
1.863281 0.120389 0
1.867188 0.108197 0
1.871094 0.097082 0
1.875000 0.086799 0
1.878906 0.076905 0
1.882812 0.066708 0
1.886719 0.055264 0
1.890625 0.041441 0
1.894531 0.024129 0
1.898438 0.002586 0
1.902344 -0.023091 0
1.906250 -0.051525 0
1.910156 -0.079767 0
1.914062 -0.103322 0
1.917969 -0.116507 2
1.921875 -0.113041 0
1.925781 -0.086708 0
1.929688 -0.031981 0
1.933594 0.055301 0
1.937500 0.176989 0
1.941406 0.331252 0
1.945312 0.510970 0
1.949219 0.702591 0
1.953125 0.886429 0
1.957031 1.039129 0
1.960938 1.138177 0
1.964844 1.167252 3
1.968750 1.122545 0
1.972656 1.010560 0
1.976562 0.846080 0
1.980469 0.649538 0
1.984375 0.442580 0
1.988281 0.244275 0
1.992188 0.068899 0
1.996094 -0.074596 0
2.000000 -0.181970 0
2.003906 -0.252696 0
2.007812 -0.289094 0
2.011719 -0.295726 4
2.015625 -0.278866 0
2.019531 -0.245832 0
2.023438 -0.204089 0
2.027344 -0.160287 0
2.031250 -0.119485 0
2.035156 -0.084769 0
2.039062 -0.057329 0
2.042969 -0.036883 0
2.046875 -0.022263 0
2.050781 -0.011957 0
2.054688 -0.004510 0
2.058594 0.001266 0
2.062500 0.006236 0
2.066406 0.010974 0
2.070312 0.015832 0
2.074219 0.021021 0
2.078125 0.026665 0
2.082031 0.032840 0
2.085938 0.039597 0
2.089844 0.046975 0
2.093750 0.055004 0
2.097656 0.063710 0
2.101562 0.073111 0
2.105469 0.083221 0
2.109375 0.094047 0
2.113281 0.105588 0
2.117188 0.117835 0
2.121094 0.130769 0
2.125000 0.144363 0
2.128906 0.158578 0
2.132812 0.173366 0
2.136719 0.188667 0
2.140625 0.204409 0
2.144531 0.220511 0
2.148438 0.236881 0
2.152344 0.253418 0
2.156250 0.270008 0
2.160156 0.286534 0
2.164062 0.302868 0
2.167969 0.318880 0
2.171875 0.334432 0
2.175781 0.349389 0
2.179688 0.363611 0
2.183594 0.376963 0
2.187500 0.389313 0
2.191406 0.400535 0
2.195312 0.410511 0
2.199219 0.419132 0
2.203125 0.426303 0
2.207031 0.431941 0
2.210938 0.435978 0
2.214844 0.438363 0
2.218750 0.439061 5
2.222656 0.438055 0
2.226562 0.435348 0
2.230469 0.430958 0
2.234375 0.424922 0
2.238281 0.417297 0
2.242188 0.408152 0
2.246094 0.397574 0
2.250000 0.385662 0
2.253906 0.372529 0
2.257812 0.358295 0
2.261719 0.343093 0
2.265625 0.327057 0
2.269531 0.310328 0
2.273438 0.293049 0
2.277344 0.275362 0
2.281250 0.257406 0
2.285156 0.239319 0
2.289062 0.221231 0
2.292969 0.203265 0
2.296875 0.185537 0
2.300781 0.168152 0
2.304688 0.151207 0
2.308594 0.134785 0
2.312500 0.118959 0
2.316406 0.103792 0
2.320312 0.089333 0
2.324219 0.075622 0
2.328125 0.062687 0
2.332031 0.050546 0
2.335938 0.039207 0
2.339844 0.028670 0
2.343750 0.018926 0
2.347656 0.009961 0
2.351562 0.001752 0
2.355469 -0.005728 0
2.359375 -0.012509 0
2.363281 -0.018625 0
2.367188 -0.024115 0
2.371094 -0.029016 0
2.375000 -0.033368 0
2.378906 -0.037212 0
2.382812 -0.040587 0
2.386719 -0.043533 0
2.390625 -0.046087 0
2.394531 -0.048287 0
2.398438 -0.050168 0
2.402344 -0.051762 0
2.406250 -0.053101 0
2.410156 -0.054213 0
2.414062 -0.055125 0
2.417969 -0.055861 0
2.421875 -0.056443 0
2.425781 -0.056892 0
2.429688 -0.057226 0
2.433594 -0.057460 0
2.437500 -0.057609 0
2.441406 -0.057686 0
2.445312 -0.057701 0
2.449219 -0.057665 0
2.453125 -0.057587 0
2.457031 -0.057472 0
2.460938 -0.057328 0
2.464844 -0.057160 0
2.468750 -0.056973 0
2.472656 -0.056770 0
2.476562 -0.056555 0
2.480469 -0.056322 0
2.484375 -0.056049 0
2.488281 -0.055779 0
2.492188 -0.055512 0
2.496094 -0.055249 0
2.500000 -0.054988 0
2.503906 -0.054731 0
2.507812 -0.054476 0
2.511719 -0.054225 0
2.515625 -0.053977 0
2.519531 -0.053731 0
2.523438 -0.053489 0
2.527344 -0.053249 0
2.531250 -0.053013 0
2.535156 -0.052779 0
2.539062 -0.052548 0
2.542969 -0.052320 0
2.546875 -0.052095 0
2.550781 -0.051873 0
2.554688 -0.051653 0
2.558594 -0.051436 0
2.562500 -0.051222 0
2.566406 -0.051011 0
2.570312 -0.050802 0
2.574219 -0.050596 0
2.578125 -0.050392 0
2.582031 -0.050191 0
2.585938 -0.049993 0
2.589844 -0.049797 0
2.593750 -0.049603 0
2.597656 -0.049413 0
2.601562 -0.049224 0
2.605469 -0.049038 0
2.609375 -0.048854 0
2.613281 -0.048673 0
2.617188 -0.048494 0
2.621094 -0.048317 0
2.625000 -0.048142 0
2.628906 -0.047968 0
2.632812 -0.047796 0
2.636719 -0.047625 0
2.640625 -0.047454 0
2.644531 -0.047283 0
2.648438 -0.047110 0
2.652344 -0.046933 0
2.656250 -0.046749 0
2.660156 -0.046556 0
2.664062 -0.046349 0
2.667969 -0.046121 0
2.671875 -0.045865 0
2.675781 -0.045569 0
2.679688 -0.045220 0
2.683594 -0.044801 0
2.687500 -0.044288 0
2.691406 -0.043656 0
2.695312 -0.042871 0
2.699219 -0.041892 0
2.703125 -0.040671 0
2.707031 -0.039153 0
2.710938 -0.037272 0
2.714844 -0.034957 0
2.718750 -0.032128 0
2.722656 -0.028696 0
2.726562 -0.024571 0
2.730469 -0.019657 0
2.734375 -0.013862 0
2.738281 -0.007098 0
2.742188 0.000716 0
2.746094 0.009643 0
2.750000 0.019727 0
2.753906 0.030984 0
2.757812 0.043400 0
2.761719 0.056922 0
2.765625 0.071458 0
2.769531 0.086868 0
2.773438 0.102971 0
2.777344 0.119540 0
2.781250 0.136305 0
2.785156 0.152964 0
2.789062 0.169185 0
2.792969 0.184620 0
2.796875 0.198913 0
2.800781 0.211717 0
2.804688 0.222706 0
2.808594 0.231584 0
2.812500 0.238106 0
2.816406 0.242082 0
2.820312 0.243387 1
2.824219 0.241969 0
2.828125 0.237849 0
2.832031 0.231122 0
2.835938 0.221951 0
2.839844 0.210562 0
2.843750 0.197233 0
2.847656 0.182283 0
2.851562 0.166059 0
2.855469 0.148920 0
2.859375 0.131227 0
2.863281 0.113328 0
2.867188 0.095549 0
2.871094 0.078181 0
2.875000 0.061476 0
2.878906 0.045639 0
2.882812 0.030823 0
2.886719 0.017121 0
2.890625 0.004557 0
2.894531 -0.006939 0
2.898438 -0.017556 0
2.902344 -0.027651 0
2.906250 -0.037785 0
2.910156 -0.048748 0
2.914062 -0.061534 0
2.917969 -0.077206 0
2.921875 -0.096658 0
2.925781 -0.120254 0
2.929688 -0.147424 0
2.933594 -0.176327 0
2.937500 -0.203703 0
2.941406 -0.225002 0
2.945312 -0.234767 2
2.949219 -0.227171 0
2.953125 -0.196573 0
2.957031 -0.138046 0
2.960938 -0.047967 0
2.964844 0.075145 0
2.968750 0.229428 0
2.972656 0.408312 0
2.976562 0.599539 0
2.980469 0.785347 0
2.984375 0.944408 0
2.988281 1.055501 0
2.992188 1.102062 3
2.996094 1.075943 0
3.000000 0.979814 0
3.003906 0.826485 0
3.007812 0.635560 0
3.011719 0.428986 0
3.015625 0.226909 0
3.019531 0.044990 0
3.023438 -0.106511 0
3.027344 -0.222319 0
3.031250 -0.301151 0
3.035156 -0.344782 0
3.039062 -0.357377 4
3.042969 -0.344958 0
3.046875 -0.314762 0
3.050781 -0.274373 0
3.054688 -0.230733 0
3.058594 -0.189296 0
3.062500 -0.153551 0
3.066406 -0.125023 0
3.070312 -0.103646 0
3.074219 -0.088352 0
3.078125 -0.077641 0
3.082031 -0.070017 0
3.085938 -0.064229 0
3.089844 -0.059357 0
3.093750 -0.054783 0
3.097656 -0.050123 0
3.101562 -0.045148 0
3.105469 -0.039725 0
3.109375 -0.033773 0
3.113281 -0.027237 0
3.117188 -0.020077 0
3.121094 -0.012262 0
3.125000 -0.003766 0
3.128906 0.005432 0
3.132812 0.015345 0
3.136719 0.025982 0
3.140625 0.037341 0
3.144531 0.049415 0
3.148438 0.062185 0
3.152344 0.075625 0
3.156250 0.089697 0
3.160156 0.104351 0
3.164062 0.119529 0
3.167969 0.135159 0
3.171875 0.151159 0
3.175781 0.167437 0
3.179688 0.183891 0
3.183594 0.200407 0
3.187500 0.216867 0
3.191406 0.233142 0
3.195312 0.249100 0
3.199219 0.264603 0
3.203125 0.279513 0
3.207031 0.293691 0
3.210938 0.307000 0
3.214844 0.319305 0
3.218750 0.330480 0
3.222656 0.340406 0
3.226562 0.348974 0
3.230469 0.356087 0
3.234375 0.361661 0
3.238281 0.365630 0
3.242188 0.367941 0
3.246094 0.368559 5
3.250000 0.367470 0
3.253906 0.364675 0
3.257812 0.360195 0
3.261719 0.354069 0
3.265625 0.346353 0
3.269531 0.337119 0
3.273438 0.326456 0
3.277344 0.314465 0
3.281250 0.301260 0
3.285156 0.286965 0
3.289062 0.271711 0
3.292969 0.255637 0
3.296875 0.238886 0
3.300781 0.221599 0
3.304688 0.203922 0
3.308594 0.185995 0
3.312500 0.167955 0
3.316406 0.149934 0
3.320312 0.132054 0
3.324219 0.114432 0
3.328125 0.097172 0
3.332031 0.080370 0
3.335938 0.064108 0
3.339844 0.048460 0
3.343750 0.033485 0
3.347656 0.019233 0
3.351562 0.005741 0
3.355469 -0.006964 0
3.359375 -0.018866 0
3.363281 -0.029958 0
3.367188 -0.040241 0
3.371094 -0.049726 0
3.375000 -0.058430 0
3.378906 -0.066375 0
3.382812 -0.073590 0
3.386719 -0.080106 0
3.390625 -0.085959 0
3.394531 -0.091187 0
3.398438 -0.095829 0
3.402344 -0.099925 0
3.406250 -0.103516 0
3.410156 -0.106642 0
3.414062 -0.109342 0
3.417969 -0.111656 0
3.421875 -0.113618 0
3.425781 -0.115265 0
3.429688 -0.116629 0
3.433594 -0.117740 0
3.437500 -0.118628 0
3.441406 -0.119318 0
3.445312 -0.119834 0
3.449219 -0.120198 0
3.453125 -0.120431 0
3.457031 -0.120548 0
3.460938 -0.120567 0
3.464844 -0.120501 0
3.468750 -0.120362 0
3.472656 -0.120162 0
3.476562 -0.119910 0
3.480469 -0.119613 0
3.484375 -0.119279 0
3.488281 -0.118914 0
3.492188 -0.118523 0
3.496094 -0.118111 0
3.500000 -0.117681 0
3.503906 -0.117236 0
3.507812 -0.116741 0
3.511719 -0.116236 0
3.515625 -0.115732 0
3.519531 -0.115227 0
3.523438 -0.114722 0
3.527344 -0.114217 0
3.531250 -0.113712 0
3.535156 -0.113206 0
3.539062 -0.112701 0
3.542969 -0.112195 0
3.546875 -0.111689 0
3.550781 -0.111182 0
3.554688 -0.110676 0
3.558594 -0.110169 0
3.562500 -0.109662 0
3.566406 -0.109155 0
3.570312 -0.108647 0
3.574219 -0.108139 0
3.578125 -0.107630 0
3.582031 -0.107122 0
3.585938 -0.106613 0
3.589844 -0.106104 0
3.593750 -0.105594 0
3.597656 -0.105084 0
3.601562 -0.104574 0
3.605469 -0.104063 0
3.609375 -0.103552 0
3.613281 -0.103040 0
3.617188 -0.102528 0
3.621094 -0.102016 0
3.625000 -0.101503 0
3.628906 -0.100990 0
3.632812 -0.100476 0
3.636719 -0.099961 0
3.640625 -0.099446 0
3.644531 -0.098931 0
3.648438 -0.098415 0
3.652344 -0.097897 0
3.656250 -0.097379 0
3.660156 -0.096859 0
3.664062 -0.096336 0
3.667969 -0.095811 0
3.671875 -0.095282 0
3.675781 -0.094747 0
3.679688 -0.094205 0
3.683594 -0.093651 0
3.687500 -0.093083 0
3.691406 -0.092494 0
3.695312 -0.091878 0
3.699219 -0.091225 0
3.703125 -0.090521 0
3.707031 -0.089752 0
3.710938 -0.088896 0
3.714844 -0.087929 0
3.718750 -0.086819 0
3.722656 -0.085528 0
3.726562 -0.084011 0
3.730469 -0.082215 0
3.734375 -0.080078 0
3.738281 -0.077529 0
3.742188 -0.074490 0
3.746094 -0.070876 0
3.750000 -0.066596 0
3.753906 -0.061554 0
3.757812 -0.055656 0
3.761719 -0.048810 0
3.765625 -0.040932 0
3.769531 -0.031953 0
3.773438 -0.021821 0
3.777344 -0.010510 0
3.781250 0.001976 0
3.785156 0.015597 0
3.789062 0.030271 0
3.792969 0.045873 0
3.796875 0.062232 0
3.800781 0.079132 0
3.804688 0.096312 0
3.808594 0.113477 0
3.812500 0.130298 0
3.816406 0.146427 0
3.820312 0.161507 0
3.824219 0.175182 0
3.828125 0.187117 0
3.832031 0.197005 0
3.835938 0.204584 0
3.839844 0.209647 0
3.843750 0.212052 1
3.847656 0.211728 0
3.851562 0.208681 0
3.855469 0.202988 0
3.859375 0.194799 0
3.863281 0.184331 0
3.867188 0.171853 0
3.871094 0.157679 0
3.875000 0.142155 0
3.878906 0.125642 0
3.882812 0.108506 0
3.886719 0.091100 0
3.890625 0.073759 0
3.894531 0.056783 0
3.898438 0.040435 0
3.902344 0.024928 0
3.906250 0.010428 0
3.910156 -0.002962 0
3.914062 -0.015206 0
3.917969 -0.026358 0
3.921875 -0.036590 0
3.925781 -0.046235 0
3.929688 -0.055829 0
3.933594 -0.066141 0
3.937500 -0.078150 0
3.941406 -0.092932 0
3.945312 -0.111428 0
3.949219 -0.134083 0
3.953125 -0.160444 0
3.957031 -0.188796 0
3.960938 -0.215987 0
3.964844 -0.237534 0
3.968750 -0.247990 2
3.972656 -0.241483 0
3.976562 -0.212285 0
3.980469 -0.155348 0
3.984375 -0.066898 0
3.988281 0.054730 0
3.992188 0.207904 0
3.996094 0.386289 0
4.000000 0.577817 0
4.003906 0.764788 0
4.007812 0.925765 0
4.011719 1.039246 0
4.015625 1.088291 3
4.019531 1.062529 0
4.023438 0.964018 0
4.027344 0.807074 0
4.031250 0.613392 0
4.035156 0.406774 0
4.039062 0.208411 0
4.042969 0.034082 0
4.046875 -0.106538 0
4.050781 -0.209132 0
4.054688 -0.273546 0
4.058594 -0.302785 4
4.062500 -0.302317 0
4.066406 -0.279415 0
4.070312 -0.242264 0
4.074219 -0.198839 0
4.078125 -0.155794 0
4.082031 -0.117701 0
4.085938 -0.086851 0
4.089844 -0.063584 0
4.093750 -0.046930 0
4.097656 -0.035308 0
4.101562 -0.027072 0
4.105469 -0.020834 0
4.109375 -0.015574 0
4.113281 -0.010617 0
4.117188 -0.005552 0
4.121094 -0.000140 0
4.125000 0.005756 0
4.128906 0.012218 0
4.132812 0.019301 0
4.136719 0.027047 0
4.140625 0.035487 0
4.144531 0.044648 0
4.148438 0.054550 0
4.152344 0.065205 0
4.156250 0.076617 0
4.160156 0.088783 0
4.164062 0.101686 0
4.167969 0.115303 0
4.171875 0.129596 0
4.175781 0.144515 0
4.179688 0.160000 0
4.183594 0.175977 0
4.187500 0.192357 0
4.191406 0.209043 0
4.195312 0.225923 0
4.199219 0.242877 0
4.203125 0.259773 0
4.207031 0.276473 0
4.210938 0.292831 0
4.214844 0.308699 0
4.218750 0.323925 0
4.222656 0.338357 0
4.226562 0.351847 0
4.230469 0.364251 0
4.234375 0.375434 0
4.238281 0.385269 0
4.242188 0.393643 0
4.246094 0.400457 0
4.250000 0.405628 0
4.253906 0.409091 0
4.257812 0.410802 5
4.261719 0.410735 0
4.265625 0.408885 0
4.269531 0.405270 0
4.273438 0.399925 0
4.277344 0.392910 0
4.281250 0.384299 0
4.285156 0.374186 0
4.289062 0.362681 0
4.292969 0.349907 0
4.296875 0.335998 0
4.300781 0.321099 0
4.304688 0.305359 0
4.308594 0.288935 0
4.312500 0.271982 0
4.316406 0.254655 0
4.320312 0.237108 0
4.324219 0.219486 0
4.328125 0.201931 0
4.332031 0.184574 0
4.335938 0.167534 0
4.339844 0.150920 0
4.343750 0.134831 0
4.347656 0.119349 0
4.351562 0.104546 0
4.355469 0.090478 0
4.359375 0.077190 0
4.363281 0.064715 0
4.367188 0.053073 0
4.371094 0.042273 0
4.375000 0.032313 0
4.378906 0.023185 0
4.382812 0.014869 0
4.386719 0.007342 0
4.390625 0.000572 0
4.394531 -0.005475 0
4.398438 -0.010838 0
4.402344 -0.015560 0
4.406250 -0.019682 0
4.410156 -0.023249 0
4.414062 -0.026304 0
4.417969 -0.028892 0
4.421875 -0.031054 0
4.425781 -0.032831 0
4.429688 -0.034263 0
4.433594 -0.035385 0
4.437500 -0.036233 0
4.441406 -0.036837 0
4.445312 -0.037229 0
4.449219 -0.037433 0
4.453125 -0.037475 0
4.457031 -0.037377 0
4.460938 -0.037158 0
4.464844 -0.036835 0
4.468750 -0.036424 0
4.472656 -0.035938 0
4.476562 -0.035390 0
4.480469 -0.034788 0
4.484375 -0.034143 0
4.488281 -0.033461 0
4.492188 -0.032750 0
4.496094 -0.032013 0
4.500000 -0.031257 0
4.503906 -0.030485 0
4.507812 -0.029691 0
4.511719 -0.028853 0
4.515625 -0.028015 0
4.519531 -0.027179 0
4.523438 -0.026344 0
4.527344 -0.025511 0
4.531250 -0.024679 0
4.535156 -0.023848 0
4.539062 -0.023018 0
4.542969 -0.022189 0
4.546875 -0.021362 0
4.550781 -0.020536 0
4.554688 -0.019712 0
4.558594 -0.018889 0
4.562500 -0.018067 0
4.566406 -0.017247 0
4.570312 -0.016427 0
4.574219 -0.015610 0
4.578125 -0.014793 0
4.582031 -0.013978 0
4.585938 -0.013165 0
4.589844 -0.012353 0
4.593750 -0.011542 0
4.597656 -0.010732 0
4.601562 -0.009925 0
4.605469 -0.009118 0
4.609375 -0.008313 0
4.613281 -0.007509 0
4.617188 -0.006707 0
4.621094 -0.005907 0
4.625000 -0.005107 0
4.628906 -0.004310 0
4.632812 -0.003513 0
4.636719 -0.002718 0
4.640625 -0.001925 0
4.644531 -0.001132 0
4.648438 -0.000341 0
4.652344 0.000450 0
4.656250 0.001240 0
4.660156 0.002030 0
4.664062 0.002822 0
4.667969 0.003615 0
4.671875 0.004413 0
4.675781 0.005217 0
4.679688 0.006032 0
4.683594 0.006861 0
4.687500 0.007712 0
4.691406 0.008593 0
4.695312 0.009516 0
4.699219 0.010497 0
4.703125 0.011554 0
4.707031 0.012714 0
4.710938 0.014007 0
4.714844 0.015471 0
4.718750 0.017154 0
4.722656 0.019111 0
4.726562 0.021407 0
4.730469 0.024116 0
4.734375 0.027323 0
4.738281 0.031120 0
4.742188 0.035606 0
4.746094 0.040884 0
4.750000 0.047057 0
4.753906 0.054225 0
4.757812 0.062478 0
4.761719 0.071889 0
4.765625 0.082509 0
4.769531 0.094361 0
4.773438 0.107429 0
4.777344 0.121656 0
4.781250 0.136937 0
4.785156 0.153114 0
4.789062 0.169981 0
4.792969 0.187277 0
4.796875 0.204698 0
4.800781 0.221900 0
4.804688 0.238512 0
4.808594 0.254147 0
4.812500 0.268416 0
4.816406 0.280946 0
4.820312 0.291397 0
4.824219 0.299473 0
4.828125 0.304942 0
4.832031 0.307643 1
4.835938 0.307496 0
4.839844 0.304507 0
4.843750 0.298763 0
4.847656 0.290436 0
4.851562 0.279768 0
4.855469 0.267063 0
4.859375 0.252670 0
4.863281 0.236970 0
4.867188 0.220361 0
4.871094 0.203236 0
4.875000 0.185972 0
4.878906 0.168920 0
4.882812 0.152385 0
4.886719 0.136628 0
4.890625 0.121852 0
4.894531 0.108196 0
4.898438 0.095726 0
4.902344 0.084416 0
4.906250 0.074115 0
4.910156 0.064502 0
4.914062 0.055037 0
4.917969 0.044914 0
4.921875 0.033085 0
4.925781 0.018382 0
4.929688 -0.000213 0
4.933594 -0.023149 0
4.937500 -0.049822 0
4.941406 -0.078169 0
4.945312 -0.104495 0
4.949219 -0.123658 0
4.953125 -0.129556 2
4.957031 -0.115787 0
4.960938 -0.076313 0
4.964844 -0.006095 0
4.968750 0.098110 0
4.972656 0.236587 0
4.976562 0.405084 0
4.980469 0.593291 0
4.984375 0.784263 0
4.988281 0.955784 0
4.992188 1.084012 0
4.996094 1.148742 3
5.000000 1.139012 0
5.003906 1.055481 0
5.007812 0.910089 0
5.011719 0.722993 0
5.015625 0.517586 0
5.019531 0.315663 0
5.023438 0.134201 0
5.027344 -0.015776 0
5.031250 -0.128741 0
5.035156 -0.203536 0
5.039062 -0.242320 0
5.042969 -0.249829 4
5.046875 -0.232764 0
5.050781 -0.199010 0
5.054688 -0.156602 0
5.058594 -0.112610 0
5.062500 -0.072262 0
5.066406 -0.038563 0
5.070312 -0.012457 0
5.074219 0.006633 0
5.078125 0.020116 0
5.082031 0.029635 0
5.085938 0.036676 0
5.089844 0.042388 0
5.093750 0.047562 0
5.097656 0.052697 0
5.101562 0.058087 0
5.105469 0.063903 0
5.109375 0.070246 0
5.113281 0.077178 0
5.117188 0.084746 0
5.121094 0.092984 0
5.125000 0.101922 0
5.128906 0.111582 0
5.132812 0.121978 0
5.136719 0.133121 0
5.140625 0.145009 0
5.144531 0.157634 0
5.148438 0.170977 0
5.152344 0.185006 0
5.156250 0.199680 0
5.160156 0.214946 0
5.164062 0.230737 0
5.167969 0.246974 0
5.171875 0.263568 0
5.175781 0.280415 0
5.179688 0.297403 0
5.183594 0.314409 0
5.187500 0.331299 0
5.191406 0.347937 0
5.195312 0.364175 0
5.199219 0.379869 0
5.203125 0.394866 0
5.207031 0.409021 0
5.210938 0.422188 0
5.214844 0.434228 0
5.218750 0.445011 0
5.222656 0.454417 0
5.226562 0.462337 0
5.230469 0.468680 0
5.234375 0.473370 0
5.238281 0.476348 0
5.242188 0.477575 5
5.246094 0.477033 0
5.250000 0.474721 0
5.253906 0.470662 0
5.257812 0.464898 0
5.261719 0.457488 0
5.265625 0.448513 0
5.269531 0.438067 0
5.273438 0.426261 0
5.277344 0.413219 0
5.281250 0.399076 0
5.285156 0.383974 0
5.289062 0.368062 0
5.292969 0.351494 0
5.296875 0.334422 0
5.300781 0.317000 0
5.304688 0.299376 0
5.308594 0.281695 0
5.312500 0.264093 0
5.316406 0.246698 0
5.320312 0.229626 0
5.324219 0.212985 0
5.328125 0.196868 0
5.332031 0.181357 0
5.335938 0.166520 0
5.339844 0.152412 0
5.343750 0.139077 0
5.347656 0.126545 0
5.351562 0.114837 0
5.355469 0.103960 0
5.359375 0.093914 0
5.363281 0.084689 0
5.367188 0.076266 0
5.371094 0.068621 0
5.375000 0.061725 0
5.378906 0.055543 0
5.382812 0.050036 0
5.386719 0.045164 0
5.390625 0.040886 0
5.394531 0.037156 0
5.398438 0.033933 0
5.402344 0.031174 0
5.406250 0.028836 0
5.410156 0.026880 0
5.414062 0.025267 0
5.417969 0.023961 0
5.421875 0.022927 0
5.425781 0.022135 0
5.429688 0.021555 0
5.433594 0.021160 0
5.437500 0.020925 0
5.441406 0.020830 0
5.445312 0.020855 0
5.449219 0.020982 0
5.453125 0.021195 0
5.457031 0.021481 0
5.460938 0.021829 0
5.464844 0.022228 0
5.468750 0.022668 0
5.472656 0.023143 0
5.476562 0.023646 0
5.480469 0.024171 0
5.484375 0.024714 0
5.488281 0.025270 0
5.492188 0.025836 0
5.496094 0.026448 0
5.500000 0.027063 0
5.503906 0.027674 0
5.507812 0.028281 0
5.511719 0.028883 0
5.515625 0.029481 0
5.519531 0.030075 0
5.523438 0.030663 0
5.527344 0.031248 0
5.531250 0.031828 0
5.535156 0.032404 0
5.539062 0.032975 0
5.542969 0.033542 0
5.546875 0.034104 0
5.550781 0.034662 0
5.554688 0.035215 0
5.558594 0.035765 0
5.562500 0.036309 0
5.566406 0.036850 0
5.570312 0.037386 0
5.574219 0.037917 0
5.578125 0.038445 0
5.582031 0.038968 0
5.585938 0.039486 0
5.589844 0.040000 0
5.593750 0.040510 0
5.597656 0.041016 0
5.601562 0.041517 0
5.605469 0.042014 0
5.609375 0.042507 0
5.613281 0.042995 0
5.617188 0.043479 0
5.621094 0.043959 0
5.625000 0.044435 0
5.628906 0.044906 0
5.632812 0.045374 0
5.636719 0.045838 0
5.640625 0.046299 0
5.644531 0.046757 0
5.648438 0.047212 0
5.652344 0.047667 0
5.656250 0.048121 0
5.660156 0.048578 0
5.664062 0.049040 0
5.667969 0.049511 0
5.671875 0.049996 0
5.675781 0.050502 0
5.679688 0.051040 0
5.683594 0.051621 0
5.687500 0.052262 0
5.691406 0.052983 0
5.695312 0.053812 0
5.699219 0.054781 0
5.703125 0.055930 0
5.707031 0.057306 0
5.710938 0.058968 0
5.714844 0.060982 0
5.718750 0.063423 0
5.722656 0.066376 0
5.726562 0.069933 0
5.730469 0.074193 0
5.734375 0.079259 0
5.738281 0.085230 0
5.742188 0.092203 0
5.746094 0.100264 0
5.750000 0.109483 0
5.753906 0.119904 0
5.757812 0.131544 0
5.761719 0.144382 0
5.765625 0.158354 0
5.769531 0.173349 0
5.773438 0.189209 0
5.777344 0.205720 0
5.781250 0.222624 0
5.785156 0.239615 0
5.789062 0.256354 0
5.792969 0.272472 0
5.796875 0.287589 0
5.800781 0.301322 0
5.804688 0.313308 0
5.808594 0.323212 0
5.812500 0.330748 0
5.816406 0.335690 0
5.820312 0.337883 1
5.824219 0.337248 0
5.828125 0.333793 0
5.832031 0.327607 0
5.835938 0.318855 0
5.839844 0.307777 0
5.843750 0.294668 0
5.847656 0.279874 0
5.851562 0.263767 0
5.855469 0.246738 0
5.859375 0.229174 0
5.863281 0.211448 0
5.867188 0.193905 0
5.871094 0.176852 0
5.875000 0.160548 0
5.878906 0.145198 0
5.882812 0.130945 0
5.886719 0.117865 0
5.890625 0.105943 0
5.894531 0.095049 0
5.898438 0.084894 0
5.902344 0.074981 0
5.906250 0.064559 0
5.910156 0.052631 0
5.914062 0.038055 0
5.917969 0.019776 0
5.921875 -0.002791 0
5.925781 -0.029293 0
5.929688 -0.058017 0
5.933594 -0.085670 0
5.937500 -0.107480 0
5.941406 -0.117609 2
5.945312 -0.109771 0
5.949219 -0.077882 0
5.953125 -0.016672 0
5.957031 0.077607 0
5.960938 0.206170 0
5.964844 0.366260 0
5.968750 0.549581 0
5.972656 0.741376 0
5.976562 0.921101 0
5.980469 1.065299 0
5.984375 1.152339 0
5.988281 1.167666 3
5.992188 1.109503 0
5.996094 0.986242 0
6.000000 0.814046 0
6.003906 0.613901 0
6.007812 0.407209 0
6.011719 0.212245 0
6.015625 0.042276 0
6.019531 -0.094698 0
6.023438 -0.195210 0
6.027344 -0.259321 0
6.031250 -0.289807 0
6.035156 -0.291587 4
6.039062 -0.271185 0
6.042969 -0.236014 0
6.046875 -0.193455 0
6.050781 -0.149909 0
6.054688 -0.110083 0
6.058594 -0.076695 0
6.062500 -0.050623 0
6.066406 -0.031377 0
6.070312 -0.017690 0
6.074219 -0.008037 0
6.078125 -0.001001 0
6.082031 0.004547 0
6.085938 0.009414 0
6.089844 0.014126 0
6.093750 0.019006 0
6.097656 0.024245 0
6.101562 0.029955 0
6.105469 0.036206 0
6.109375 0.043048 0
6.113281 0.050516 0
6.117188 0.058640 0
6.121094 0.067444 0
6.125000 0.076947 0
6.128906 0.087161 0
6.132812 0.098090 0
6.136719 0.109734 0
6.140625 0.122080 0
6.144531 0.135110 0
6.148438 0.148794 0
6.152344 0.163090 0
6.156250 0.177950 0
6.160156 0.193310 0
6.164062 0.209098 0
6.167969 0.225231 0
6.171875 0.241615 0
6.175781 0.258145 0
6.179688 0.274710 0
6.183594 0.291188 0
6.187500 0.307452 0
6.191406 0.323370 0
6.195312 0.338805 0
6.199219 0.353620 0
6.203125 0.367677 0
6.207031 0.380841 0
6.210938 0.392982 0
6.214844 0.403973 0
6.218750 0.413699 0
6.222656 0.422053 0
6.226562 0.428943 0
6.230469 0.434287 0
6.234375 0.438021 0
6.238281 0.440095 0
6.242188 0.440479 5
6.246094 0.439160 0
6.250000 0.436140 0
6.253906 0.431445 0
6.257812 0.425112 0
6.261719 0.417201 0
6.265625 0.407785 0
6.269531 0.396952 0
6.273438 0.384804 0
6.277344 0.371455 0
6.281250 0.357028 0
6.285156 0.341654 0
6.289062 0.325472 0
6.292969 0.308620 0
6.296875 0.291243 0
6.300781 0.273481 0
6.304688 0.255474 0
6.308594 0.237358 0
6.312500 0.219263 0
6.316406 0.201310 0
6.320312 0.183613 0
6.324219 0.166276 0
6.328125 0.149393 0
6.332031 0.133046 0
6.335938 0.117307 0
6.339844 0.102236 0
6.343750 0.087880 0
6.347656 0.074277 0
6.351562 0.061453 0
6.355469 0.049426 0
6.359375 0.038201 0
6.363281 0.027776 0
6.367188 0.018144 0
6.371094 0.009286 0
6.375000 0.001180 0
6.378906 -0.006201 0
6.382812 -0.012888 0
6.386719 -0.018917 0
6.390625 -0.024326 0
6.394531 -0.029152 0
6.398438 -0.033436 0
6.402344 -0.037217 0
6.406250 -0.040537 0
6.410156 -0.043433 0
6.414062 -0.045945 0
6.417969 -0.048107 0
6.421875 -0.049956 0
6.425781 -0.051523 0
6.429688 -0.052839 0
6.433594 -0.053932 0
6.437500 -0.054830 0
6.441406 -0.055555 0
6.445312 -0.056130 0
6.449219 -0.056575 0
6.453125 -0.056906 0
6.457031 -0.057140 0
6.460938 -0.057292 0
6.464844 -0.057372 0
6.468750 -0.057393 0
6.472656 -0.057364 0
6.476562 -0.057293 0
6.480469 -0.057188 0
6.484375 -0.057053 0
6.488281 -0.056895 0
6.492188 -0.056719 0
6.496094 -0.056527 0
6.500000 -0.056323 0
6.503906 -0.056070 0
6.507812 -0.055810 0
6.511719 -0.055554 0
6.515625 -0.055300 0
6.519531 -0.055050 0
6.523438 -0.054802 0
6.527344 -0.054558 0
6.531250 -0.054316 0
6.535156 -0.054077 0
6.539062 -0.053841 0
6.542969 -0.053608 0
6.546875 -0.053378 0
6.550781 -0.053151 0
6.554688 -0.052926 0
6.558594 -0.052704 0
6.562500 -0.052485 0
6.566406 -0.052269 0
6.570312 -0.052055 0
6.574219 -0.051844 0
6.578125 -0.051635 0
6.582031 -0.051430 0
6.585938 -0.051226 0
6.589844 -0.051026 0
6.593750 -0.050828 0
6.597656 -0.050632 0
6.601562 -0.050439 0
6.605469 -0.050248 0
6.609375 -0.050060 0
6.613281 -0.049874 0
6.617188 -0.049691 0
6.621094 -0.049510 0
6.625000 -0.049331 0
6.628906 -0.049154 0
6.632812 -0.048980 0
6.636719 -0.048808 0
6.640625 -0.048638 0
6.644531 -0.048470 0
6.648438 -0.048304 0
6.652344 -0.048139 0
6.656250 -0.047975 0
6.660156 -0.047813 0
6.664062 -0.047650 0
6.667969 -0.047486 0
6.671875 -0.047320 0
6.675781 -0.047150 0
6.679688 -0.046973 0
6.683594 -0.046786 0
6.687500 -0.046584 0
6.691406 -0.046360 0
6.695312 -0.046106 0
6.699219 -0.045810 0
6.703125 -0.045460 0
6.707031 -0.045035 0
6.710938 -0.044515 0
6.714844 -0.043870 0
6.718750 -0.043066 0
6.722656 -0.042063 0
6.726562 -0.040810 0
6.730469 -0.039252 0
6.734375 -0.037322 0
6.738281 -0.034946 0
6.742188 -0.032045 0
6.746094 -0.028528 0
6.750000 -0.024306 0
6.753906 -0.019282 0
6.757812 -0.013365 0
6.761719 -0.006466 0
6.765625 0.001491 0
6.769531 0.010569 0
6.773438 0.020807 0
6.777344 0.032218 0
6.781250 0.044783 0
6.785156 0.058445 0
6.789062 0.073103 0
6.792969 0.088614 0
6.796875 0.104790 0
6.800781 0.121397 0
6.804688 0.138162 0
6.808594 0.154778 0
6.812500 0.170911 0
6.816406 0.186210 0
6.820312 0.200322 0
6.824219 0.212900 0
6.828125 0.223622 0
6.832031 0.232199 0
6.835938 0.238392 0
6.839844 0.242019 0
6.843750 0.242965 1
6.847656 0.241187 0
6.851562 0.236716 0
6.855469 0.229657 0
6.859375 0.220180 0
6.863281 0.208520 0
6.867188 0.194960 0
6.871094 0.179823 0
6.875000 0.163458 0
6.878906 0.146226 0
6.882812 0.128485 0
6.886719 0.110583 0
6.890625 0.092839 0
6.894531 0.075541 0
6.898438 0.058935 0
6.902344 0.043220 0
6.906250 0.028540 0
6.910156 0.014983 0
6.914062 0.002559 0
6.917969 -0.008813 0
6.921875 -0.019342 0
6.925781 -0.029406 0
6.929688 -0.039596 0
6.933594 -0.050731 0
6.937500 -0.063819 0
6.941406 -0.079921 0
6.945312 -0.099884 0
6.949219 -0.123978 0
6.953125 -0.151491 0
6.957031 -0.180410 0
6.960938 -0.207305 0
6.964844 -0.227490 0
6.968750 -0.235436 2
6.972656 -0.225313 0
6.976562 -0.191541 0
6.980469 -0.129321 0
6.984375 -0.035241 0
6.988281 0.091843 0
6.992188 0.249568 0
6.996094 0.430717 0
7.000000 0.622331 0
7.003906 0.806084 0
7.007812 0.960452 0
7.011719 1.064538 0
7.015625 1.102642 3
7.019531 1.067149 0
7.023438 0.961897 0
7.027344 0.801286 0
7.031250 0.606147 0
7.035156 0.398986 0
7.039062 0.199813 0
7.042969 0.023648 0
7.046875 -0.120114 0
7.050781 -0.227069 0
7.054688 -0.296727 0
7.058594 -0.331591 0
7.062500 -0.336510 4
7.066406 -0.318101 0
7.070312 -0.284012 0
7.074219 -0.241939 0
7.078125 -0.198601 0
7.082031 -0.158950 0
7.085938 -0.125839 0
7.089844 -0.100174 0
7.093750 -0.081424 0
7.097656 -0.068253 0
7.101562 -0.059076 0
7.105469 -0.052445 0
7.109375 -0.047220 0
7.113281 -0.042602 0
7.117188 -0.038077 0
7.121094 -0.033336 0
7.125000 -0.028199 0
7.128906 -0.022561 0
7.132812 -0.016353 0
7.136719 -0.009529 0
7.140625 -0.002053 0
7.144531 0.006104 0
7.148438 0.014965 0
7.152344 0.024547 0
7.156250 0.034861 0
7.160156 0.045910 0
7.164062 0.057689 0
7.167969 0.070182 0
7.171875 0.083366 0
7.175781 0.097204 0
7.179688 0.111650 0
7.183594 0.126647 0
7.187500 0.142124 0
7.191406 0.158000 0
7.195312 0.174184 0
7.199219 0.190571 0
7.203125 0.207049 0
7.207031 0.223495 0
7.210938 0.239781 0
7.214844 0.255770 0
7.218750 0.271322 0
7.222656 0.286294 0
7.226562 0.300543 0
7.230469 0.313928 0
7.234375 0.326310 0
7.238281 0.337559 0
7.242188 0.347551 0
7.246094 0.356173 0
7.250000 0.363325 0
7.253906 0.368920 0
7.257812 0.372888 0
7.261719 0.375176 0
7.265625 0.375748 5
7.269531 0.374588 0
7.273438 0.371699 0
7.277344 0.367102 0
7.281250 0.360840 0
7.285156 0.352969 0
7.289062 0.343568 0
7.292969 0.332726 0
7.296875 0.320551 0
7.300781 0.307161 0
7.304688 0.292683 0
7.308594 0.277256 0
7.312500 0.261021 0
7.316406 0.244126 0
7.320312 0.226717 0
7.324219 0.208943 0
7.328125 0.190947 0
7.332031 0.172870 0
7.335938 0.154843 0
7.339844 0.136993 0
7.343750 0.119435 0
7.347656 0.102273 0
7.351562 0.085603 0
7.355469 0.069506 0
7.359375 0.054053 0
7.363281 0.039301 0
7.367188 0.025297 0
7.371094 0.012075 0
7.375000 -0.000342 0
7.378906 -0.011941 0
7.382812 -0.022719 0
7.386719 -0.032680 0
7.390625 -0.041840 0
7.394531 -0.050218 0
7.398438 -0.057840 0
7.402344 -0.064737 0
7.406250 -0.070944 0
7.410156 -0.076498 0
7.414062 -0.081441 0
7.417969 -0.085811 0
7.421875 -0.089652 0
7.425781 -0.093004 0
7.429688 -0.095909 0
7.433594 -0.098406 0
7.437500 -0.100534 0
7.441406 -0.102329 0
7.445312 -0.103825 0
7.449219 -0.105056 0
7.453125 -0.106050 0
7.457031 -0.106836 0
7.460938 -0.107439 0
7.464844 -0.107882 0
7.468750 -0.108186 0
7.472656 -0.108369 0
7.476562 -0.108448 0
7.480469 -0.108438 0
7.484375 -0.108352 0
7.488281 -0.108201 0
7.492188 -0.107995 0
7.496094 -0.107743 0
7.500000 -0.107452 0
7.503906 -0.107128 0
7.507812 -0.106778 0
7.511719 -0.106405 0
7.515625 -0.106014 0
7.519531 -0.105607 0
7.523438 -0.105149 0
7.527344 -0.104681 0
7.531250 -0.104213 0
7.535156 -0.103744 0
7.539062 -0.103276 0
7.542969 -0.102806 0
7.546875 -0.102337 0
7.550781 -0.101867 0
7.554688 -0.101397 0
7.558594 -0.100926 0
7.562500 -0.100455 0
7.566406 -0.099983 0
7.570312 -0.099512 0
7.574219 -0.099039 0
7.578125 -0.098566 0
7.582031 -0.098093 0
7.585938 -0.097619 0
7.589844 -0.097145 0
7.593750 -0.096670 0
7.597656 -0.096195 0
7.601562 -0.095719 0
7.605469 -0.095243 0
7.609375 -0.094766 0
7.613281 -0.094289 0
7.617188 -0.093811 0
7.621094 -0.093333 0
7.625000 -0.092854 0
7.628906 -0.092374 0
7.632812 -0.091894 0
7.636719 -0.091414 0
7.640625 -0.090932 0
7.644531 -0.090450 0
7.648438 -0.089968 0
7.652344 -0.089484 0
7.656250 -0.089000 0
7.660156 -0.088515 0
7.664062 -0.088029 0
7.667969 -0.087542 0
7.671875 -0.087054 0
7.675781 -0.086563 0
7.679688 -0.086069 0
7.683594 -0.085572 0
7.687500 -0.085070 0
7.691406 -0.084562 0
7.695312 -0.084043 0
7.699219 -0.083511 0
7.703125 -0.082961 0
7.707031 -0.082386 0
7.710938 -0.081777 0
7.714844 -0.081123 0
7.718750 -0.080408 0
7.722656 -0.079613 0
7.726562 -0.078714 0
7.730469 -0.077680 0
7.734375 -0.076476 0
7.738281 -0.075057 0
7.742188 -0.073370 0
7.746094 -0.071354 0
7.750000 -0.068939 0
7.753906 -0.066046 0
7.757812 -0.062590 0
7.761719 -0.058477 0
7.765625 -0.053610 0
7.769531 -0.047892 0
7.773438 -0.041227 0
7.777344 -0.033528 0
7.781250 -0.024720 0
7.785156 -0.014747 0
7.789062 -0.003579 0
7.792969 0.008782 0
7.796875 0.022300 0
7.800781 0.036893 0
7.804688 0.052436 0
7.808594 0.068755 0
7.812500 0.085629 0
7.816406 0.102792 0
7.820312 0.119938 0
7.824219 0.136730 0
7.828125 0.152811 0
7.832031 0.167811 0
7.835938 0.181367 0
7.839844 0.193135 0
7.843750 0.202802 0
7.847656 0.210105 0
7.851562 0.214836 0
7.855469 0.216859 1
7.859375 0.216111 0
7.863281 0.212608 0
7.867188 0.206444 0
7.871094 0.197785 0
7.875000 0.186864 0
7.878906 0.173970 0
7.882812 0.159434 0
7.886719 0.143616 0
7.890625 0.126889 0
7.894531 0.109628 0
7.898438 0.092192 0
7.902344 0.074916 0
7.906250 0.058096 0
7.910156 0.041989 0
7.914062 0.026797 0
7.917969 0.012670 0
7.921875 -0.000310 0
7.925781 -0.012137 0
7.929688 -0.022912 0
7.933594 -0.032871 0
7.937500 -0.042439 0
7.941406 -0.052269 0
7.945312 -0.063257 0
7.949219 -0.076476 0
7.953125 -0.093004 0
7.957031 -0.113608 0
7.960938 -0.138335 0
7.964844 -0.166083 0
7.968750 -0.194310 0
7.972656 -0.218998 0
7.976562 -0.234922 0
7.980469 -0.236160 2
7.984375 -0.216692 0
7.988281 -0.170983 0
7.992188 -0.094568 0
7.996094 0.015193 0
8.000000 0.157988 0
8.003906 0.329112 0
8.007812 0.518152 0
8.011719 0.708619 0
8.015625 0.879313 0
8.019531 1.007689 0
8.023438 1.074592 3
8.027344 1.068906 0
8.031250 0.988063 0
8.035156 0.842988 0
8.039062 0.655048 0
8.042969 0.449131 0
8.046875 0.248208 0
8.050781 0.069819 0
8.054688 -0.075036 0
8.058594 -0.181242 0
8.062500 -0.248279 0
8.066406 -0.279084 0
8.070312 -0.279279 4
8.074219 -0.256438 0
8.078125 -0.219128 0
8.082031 -0.175672 0
8.085938 -0.132940 0
8.089844 -0.095547 0
8.093750 -0.065680 0
8.097656 -0.043495 0
8.101562 -0.027850 0
8.105469 -0.017046 0
8.109375 -0.009396 0
8.113281 -0.003522 0
8.117188 0.001551 0
8.121094 0.006451 0
8.125000 0.011547 0
8.128906 0.017052 0
8.132812 0.023085 0
8.136719 0.029722 0
8.140625 0.037013 0
8.144531 0.044997 0
8.148438 0.053705 0
8.152344 0.063162 0
8.156250 0.073385 0
8.160156 0.084383 0
8.164062 0.096157 0
8.167969 0.108695 0
8.171875 0.121976 0
8.175781 0.135967 0
8.179688 0.150622 0
8.183594 0.165881 0
8.187500 0.181670 0
8.191406 0.197903 0
8.195312 0.214480 0
8.199219 0.231289 0
8.203125 0.248204 0
8.207031 0.265092 0
8.210938 0.281808 0
8.214844 0.298201 0
8.218750 0.314116 0
8.222656 0.329394 0
8.226562 0.343877 0
8.230469 0.357407 0
8.234375 0.369835 0
8.238281 0.381018 0
8.242188 0.390822 0
8.246094 0.399131 0
8.250000 0.405839 0
8.253906 0.410862 0
8.257812 0.414133 0
8.261719 0.415606 5
8.265625 0.415258 0
8.269531 0.413087 0
8.273438 0.409114 0
8.277344 0.403383 0
8.281250 0.395956 0
8.285156 0.386919 0
8.289062 0.376373 0
8.292969 0.364438 0
8.296875 0.351247 0
8.300781 0.336943 0
8.304688 0.321681 0
8.308594 0.305620 0
8.312500 0.288923 0
8.316406 0.271754 0
8.320312 0.254274 0
8.324219 0.236641 0
8.328125 0.219005 0
8.332031 0.201508 0
8.335938 0.184281 0
8.339844 0.167445 0
8.343750 0.151105 0
8.347656 0.135355 0
8.351562 0.120275 0
8.355469 0.105928 0
8.359375 0.092366 0
8.363281 0.079627 0
8.367188 0.067735 0
8.371094 0.056702 0
8.375000 0.046530 0
8.378906 0.037210 0
8.382812 0.028725 0
8.386719 0.021050 0
8.390625 0.014154 0
8.394531 0.007999 0
8.398438 0.002547 0
8.402344 -0.002246 0
8.406250 -0.006425 0
8.410156 -0.010037 0
8.414062 -0.013126 0
8.417969 -0.015739 0
8.421875 -0.017920 0
8.425781 -0.019710 0
8.429688 -0.021152 0
8.433594 -0.022282 0
8.437500 -0.023136 0
8.441406 -0.023748 0
8.445312 -0.024147 0
8.449219 -0.024361 0
8.453125 -0.024415 0
8.457031 -0.024330 0
8.460938 -0.024128 0
8.464844 -0.023824 0
8.468750 -0.023436 0
8.472656 -0.022975 0
8.476562 -0.022454 0
8.480469 -0.021883 0
8.484375 -0.021270 0
8.488281 -0.020623 0
8.492188 -0.019948 0
8.496094 -0.019250 0
8.500000 -0.018534 0
8.503906 -0.017803 0
8.507812 -0.017022 0
8.511719 -0.016233 0
8.515625 -0.015444 0
8.519531 -0.014657 0
8.523438 -0.013871 0
8.527344 -0.013086 0
8.531250 -0.012302 0
8.535156 -0.011520 0
8.539062 -0.010738 0
8.542969 -0.009957 0
8.546875 -0.009178 0
8.550781 -0.008400 0
8.554688 -0.007623 0
8.558594 -0.006847 0
8.562500 -0.006072 0
8.566406 -0.005298 0
8.570312 -0.004525 0
8.574219 -0.003754 0
8.578125 -0.002984 0
8.582031 -0.002215 0
8.585938 -0.001447 0
8.589844 -0.000681 0
8.593750 0.000084 0
8.597656 0.000848 0
8.601562 0.001611 0
8.605469 0.002373 0
8.609375 0.003133 0
8.613281 0.003892 0
8.617188 0.004650 0
8.621094 0.005406 0
8.625000 0.006161 0
8.628906 0.006915 0
8.632812 0.007668 0
8.636719 0.008420 0
8.640625 0.009170 0
8.644531 0.009920 0
8.648438 0.010670 0
8.652344 0.011419 0
8.656250 0.012170 0
8.660156 0.012922 0
8.664062 0.013678 0
8.667969 0.014439 0
8.671875 0.015209 0
8.675781 0.015992 0
8.679688 0.016795 0
8.683594 0.017626 0
8.687500 0.018495 0
8.691406 0.019418 0
8.695312 0.020414 0
8.699219 0.021507 0
8.703125 0.022728 0
8.707031 0.024116 0
8.710938 0.025717 0
8.714844 0.027589 0
8.718750 0.029798 0
8.722656 0.032420 0
8.726562 0.035542 0
8.730469 0.039261 0
8.734375 0.043680 0
8.738281 0.048906 0
8.742188 0.055048 0
8.746094 0.062210 0
8.750000 0.070486 0
8.753906 0.079953 0
8.757812 0.090661 0
8.761719 0.102631 0
8.765625 0.115842 0
8.769531 0.130226 0
8.773438 0.145665 0
8.777344 0.161985 0
8.781250 0.178956 0
8.785156 0.196295 0
8.789062 0.213672 0
8.792969 0.230717 0
8.796875 0.247034 0
8.800781 0.262216 0
8.804688 0.275860 0
8.808594 0.287585 0
8.812500 0.297053 0
8.816406 0.303980 0
8.820312 0.308154 0
8.824219 0.309446 1
8.828125 0.307816 0
8.832031 0.303314 0
8.835938 0.296080 0
8.839844 0.286336 0
8.843750 0.274375 0
8.847656 0.260546 0
8.851562 0.245238 0
8.855469 0.228863 0
8.859375 0.211835 0
8.863281 0.194557 0
8.867188 0.177404 0
8.871094 0.160709 0
8.875000 0.144756 0
8.878906 0.129769 0
8.882812 0.115909 0
8.886719 0.103257 0
8.890625 0.091800 0
8.894531 0.081395 0
8.898438 0.071725 0
8.902344 0.062237 0
8.906250 0.052101 0
8.910156 0.040221 0
8.914062 0.025376 0
8.917969 0.006514 0
8.921875 -0.016786 0
8.925781 -0.043784 0
8.929688 -0.072143 0
8.933594 -0.097789 0
8.937500 -0.115152 0
8.941406 -0.117738 2
8.945312 -0.098867 0
8.949219 -0.052385 0
8.953125 0.026612 0
8.957031 0.140834 0
8.960938 0.289381 0
8.964844 0.465958 0
8.968750 0.657417 0
8.972656 0.843754 0
8.976562 1.000503 0
8.980469 1.103564 0
8.984375 1.135179 3
8.988281 1.089481 0
8.992188 0.973179 0
8.996094 0.803483 0
9.000000 0.603738 0
9.003906 0.397892 0
9.007812 0.206081 0
9.011719 0.042410 0
9.015625 -0.085176 0
9.019531 -0.173860 0
9.023438 -0.224724 0
9.027344 -0.241831 4
9.031250 -0.231549 0
9.035156 -0.201796 0
9.039062 -0.160992 0
9.042969 -0.116858 0
9.046875 -0.075358 0
9.050781 -0.040151 0
9.054688 -0.012630 0
9.058594 0.007554 0
9.062500 0.021763 0
9.066406 0.031700 0
9.070312 0.038945 0
9.074219 0.044732 0
9.078125 0.049916 0
9.082031 0.055036 0
9.085938 0.060407 0
9.089844 0.066210 0
9.093750 0.072549 0
9.097656 0.079492 0
9.101562 0.087084 0
9.105469 0.095363 0
9.109375 0.104357 0
9.113281 0.114090 0
9.117188 0.124576 0
9.121094 0.135825 0
9.125000 0.147834 0
9.128906 0.160593 0
9.132812 0.174078 0
9.136719 0.188258 0
9.140625 0.203084 0
9.144531 0.218499 0
9.148438 0.234431 0
9.152344 0.250793 0
9.156250 0.267488 0
9.160156 0.284407 0
9.164062 0.301427 0
9.167969 0.318418 0
9.171875 0.335238 0
9.175781 0.351742 0
9.179688 0.367777 0
9.183594 0.383188 0
9.187500 0.397820 0
9.191406 0.411522 0
9.195312 0.424145 0
9.199219 0.435549 0
9.203125 0.445603 0
9.207031 0.454190 0
9.210938 0.461207 0
9.214844 0.466567 0
9.218750 0.470201 0
9.222656 0.472063 0
9.226562 0.472125 5
9.230469 0.470381 0
9.234375 0.466846 0
9.238281 0.461558 0
9.242188 0.454575 0
9.246094 0.445973 0
9.250000 0.435849 0
9.253906 0.424315 0
9.257812 0.411495 0
9.261719 0.397529 0
9.265625 0.382563 0
9.269531 0.366753 0
9.273438 0.350255 0
9.277344 0.333230 0
9.281250 0.315837 0
9.285156 0.298231 0
9.289062 0.280562 0
9.292969 0.262972 0
9.296875 0.245593 0
9.300781 0.228548 0
9.304688 0.211945 0
9.308594 0.195883 0
9.312500 0.180444 0
9.316406 0.165698 0
9.320312 0.151701 0
9.324219 0.138498 0
9.328125 0.126117 0
9.332031 0.114576 0
9.335938 0.103884 0
9.339844 0.094036 0
9.343750 0.085020 0
9.347656 0.076816 0
9.351562 0.069397 0
9.355469 0.062730 0
9.359375 0.056778 0
9.363281 0.051500 0
9.367188 0.046854 0
9.371094 0.042794 0
9.375000 0.039277 0
9.378906 0.036258 0
9.382812 0.033691 0
9.386719 0.031535 0
9.390625 0.029749 0
9.394531 0.028294 0
9.398438 0.027133 0
9.402344 0.026232 0
9.406250 0.025560 0
9.410156 0.025088 0
9.414062 0.024790 0
9.417969 0.024642 0
9.421875 0.024623 0
9.425781 0.024714 0
9.429688 0.024898 0
9.433594 0.025160 0
9.437500 0.025489 0
9.441406 0.025872 0
9.445312 0.026300 0
9.449219 0.026765 0
9.453125 0.027260 0
9.457031 0.027778 0
9.460938 0.028316 0
9.464844 0.028868 0
9.468750 0.029431 0
9.472656 0.030040 0
9.476562 0.030654 0
9.480469 0.031263 0
9.484375 0.031868 0
9.488281 0.032469 0
9.492188 0.033065 0
9.496094 0.033657 0
9.500000 0.034244 0
9.503906 0.034827 0
9.507812 0.035406 0
9.511719 0.035981 0
9.515625 0.036551 0
9.519531 0.037117 0
9.523438 0.037678 0
9.527344 0.038235 0
9.531250 0.038788 0
9.535156 0.039337 0
9.539062 0.039881 0
9.542969 0.040421 0
9.546875 0.040956 0
9.550781 0.041487 0
9.554688 0.042014 0
9.558594 0.042537 0
9.562500 0.043055 0
9.566406 0.043569 0
9.570312 0.044079 0
9.574219 0.044585 0
9.578125 0.045086 0
9.582031 0.045583 0
9.585938 0.046076 0
9.589844 0.046565 0
9.593750 0.047049 0
9.597656 0.047529 0
9.601562 0.048006 0
9.605469 0.048478 0
9.609375 0.048947 0
9.613281 0.049412 0
9.617188 0.049874 0
9.621094 0.050334 0
9.625000 0.050792 0
9.628906 0.051251 0
9.632812 0.051710 0
9.636719 0.052175 0
9.640625 0.052647 0
9.644531 0.053132 0
9.648438 0.053638 0
9.652344 0.054173 0
9.656250 0.054751 0
9.660156 0.055386 0
9.664062 0.056101 0
9.667969 0.056922 0
9.671875 0.057882 0
9.675781 0.059021 0
9.679688 0.060390 0
9.683594 0.062048 0
9.687500 0.064063 0
9.691406 0.066513 0
9.695312 0.069487 0
9.699219 0.073081 0
9.703125 0.077399 0
9.707031 0.082545 0
9.710938 0.088625 0
9.714844 0.095737 0
9.718750 0.103971 0
9.722656 0.113393 0
9.726562 0.124048 0
9.730469 0.135946 0
9.734375 0.149055 0
9.738281 0.163300 0
9.742188 0.178554 0
9.746094 0.194636 0
9.750000 0.211312 0
9.753906 0.228298 0
9.757812 0.245263 0
9.761719 0.261843 0
9.765625 0.277650 0
9.769531 0.292284 0
9.773438 0.305354 0
9.777344 0.316493 0
9.781250 0.325373 0
9.785156 0.331724 0
9.789062 0.335343 0
9.792969 0.336109 1
9.796875 0.333986 0
9.800781 0.329026 0
9.804688 0.321367 0
9.808594 0.311226 0
9.812500 0.298889 0
9.816406 0.284695 0
9.820312 0.269024 0
9.824219 0.252276 0
9.828125 0.234857 0
9.832031 0.217161 0
9.835938 0.199556 0
9.839844 0.182373 0
9.843750 0.165893 0
9.847656 0.150343 0
9.851562 0.135888 0
9.855469 0.122618 0
9.859375 0.110538 0
9.863281 0.099532 0
9.867188 0.089324 0
9.871094 0.079424 0
9.875000 0.069076 0
9.878906 0.057261 0
9.882812 0.042796 0
9.886719 0.024576 0
9.890625 0.001986 0
9.894531 -0.024596 0
9.898438 -0.053349 0
9.902344 -0.080776 0
9.906250 -0.101829 0
9.910156 -0.110375 2
9.914062 -0.099873 0
9.917969 -0.064069 0
9.921875 0.002335 0
9.925781 0.102889 0
9.929688 0.238219 0
9.933594 0.404411 0
9.937500 0.591390 0
9.941406 0.782222 0
9.945312 0.954395 0
9.949219 1.083525 0
9.953125 1.148811 3
9.957031 1.140797 0
9.960938 1.060645 0
9.964844 0.919154 0
9.968750 0.734990 0
9.972656 0.530258 0
9.976562 0.326057 0
9.980469 0.139340 0
9.984375 -0.018391 0
9.988281 -0.140872 0
9.992188 -0.226121 0
9.996094 -0.275429 0
10.000000 -0.292632 4
10.003906 -0.283556 0
10.007812 -0.255391 0
10.011719 -0.215831 0
10.015625 -0.172067 0
10.019531 -0.129880 0
10.023438 -0.093082 0
10.027344 -0.063458 0
10.031250 -0.041108 0
10.035156 -0.025034 0
10.039062 -0.013740 0
10.042969 -0.005695 0
10.046875 0.000396 0
10.050781 0.005497 0
10.054688 0.010256 0
10.058594 0.015076 0
10.062500 0.020197 0
10.066406 0.025760 0
10.070312 0.031849 0
10.074219 0.038520 0
10.078125 0.045813 0
10.082031 0.053762 0
10.085938 0.062392 0
10.089844 0.071724 0
10.093750 0.081773 0
10.097656 0.092546 0
10.101562 0.104043 0
10.105469 0.116255 0
10.109375 0.129164 0
10.113281 0.142743 0
10.117188 0.156953 0
10.121094 0.171744 0
10.125000 0.187055 0
10.128906 0.202813 0
10.132812 0.218936 0
10.136719 0.235329 0
10.140625 0.251886 0
10.144531 0.268494 0
10.148438 0.285030 0
10.152344 0.301364 0
10.156250 0.317362 0
10.160156 0.332884 0
10.164062 0.347790 0
10.167969 0.361937 0
10.171875 0.375189 0
10.175781 0.387409 0
10.179688 0.398470 0
10.183594 0.408254 0
10.187500 0.416650 0
10.191406 0.423563 0
10.195312 0.428911 0
10.199219 0.432629 0
10.203125 0.434665 0
10.207031 0.434990 5
10.210938 0.433590 0
10.214844 0.430472 0
10.218750 0.425660 0
10.222656 0.419197 0
10.226562 0.411144 0
10.230469 0.401578 0
10.234375 0.390591 0
10.238281 0.378290 0
10.242188 0.364792 0
10.246094 0.350226 0
10.250000 0.334726 0
10.253906 0.318435 0
10.257812 0.301496 0
10.261719 0.284056 0
10.265625 0.266259 0
10.269531 0.248248 0
10.273438 0.230159 0
10.277344 0.212124 0
10.281250 0.194265 0
10.285156 0.176696 0
10.289062 0.159521 0
10.292969 0.142831 0
10.296875 0.126707 0
10.300781 0.111220 0
10.304688 0.096425 0
10.308594 0.082369 0
10.312500 0.069084 0
10.316406 0.056596 0
10.320312 0.044915 0
10.324219 0.034047 0
10.328125 0.023985 0
10.332031 0.014716 0
10.335938 0.006222 0
10.339844 -0.001524 0
10.343750 -0.008552 0
10.347656 -0.014895 0
10.351562 -0.020591 0
10.355469 -0.025679 0
10.359375 -0.030199 0
10.363281 -0.034192 0
10.367188 -0.037699 0
10.371094 -0.040761 0
10.375000 -0.043417 0
10.378906 -0.045704 0
10.382812 -0.047660 0
10.386719 -0.049318 0
10.390625 -0.050711 0
10.394531 -0.051868 0
10.398438 -0.052818 0
10.402344 -0.053585 0
10.406250 -0.054193 0
10.410156 -0.054662 0
10.414062 -0.055012 0
10.417969 -0.055259 0
10.421875 -0.055419 0
10.425781 -0.055503 0
10.429688 -0.055525 0
10.433594 -0.055493 0
10.437500 -0.055417 0
10.441406 -0.055305 0
10.445312 -0.055162 0
10.449219 -0.054995 0
10.453125 -0.054808 0
10.457031 -0.054606 0
10.460938 -0.054390 0
10.464844 -0.054158 0
10.468750 -0.053885 0
10.472656 -0.053615 0
10.476562 -0.053348 0
10.480469 -0.053084 0
10.484375 -0.052824 0
10.488281 -0.052566 0
10.492188 -0.052312 0
10.496094 -0.052061 0
10.500000 -0.051813 0
10.503906 -0.051568 0
10.507812 -0.051326 0
10.511719 -0.051087 0
10.515625 -0.050850 0
10.519531 -0.050617 0
10.523438 -0.050387 0
10.527344 -0.050160 0
10.531250 -0.049935 0
10.535156 -0.049713 0
10.539062 -0.049495 0
10.542969 -0.049278 0
10.546875 -0.049065 0
10.550781 -0.048855 0
10.554688 -0.048647 0
10.558594 -0.048442 0
10.562500 -0.048239 0
10.566406 -0.048039 0
10.570312 -0.047842 0
10.574219 -0.047647 0
10.578125 -0.047455 0
10.582031 -0.047266 0
10.585938 -0.047079 0
10.589844 -0.046894 0
10.593750 -0.046712 0
10.597656 -0.046532 0
10.601562 -0.046354 0
10.605469 -0.046179 0
10.609375 -0.046005 0
10.613281 -0.045833 0
10.617188 -0.045662 0
10.621094 -0.045492 0
10.625000 -0.045322 0
10.628906 -0.045151 0
10.632812 -0.044977 0
10.636719 -0.044798 0
10.640625 -0.044611 0
10.644531 -0.044412 0
10.648438 -0.044196 0
10.652344 -0.043955 0
10.656250 -0.043679 0
10.660156 -0.043356 0
10.664062 -0.042970 0
10.667969 -0.042500 0
10.671875 -0.041920 0
10.675781 -0.041199 0
10.679688 -0.040298 0
10.683594 -0.039172 0
10.687500 -0.037765 0
10.691406 -0.036016 0
10.695312 -0.033853 0
10.699219 -0.031195 0
10.703125 -0.027956 0
10.707031 -0.024043 0
10.710938 -0.019361 0
10.714844 -0.013812 0
10.718750 -0.007305 0
10.722656 0.000245 0
10.726562 0.008907 0
10.730469 0.018732 0
10.734375 0.029743 0
10.738281 0.041932 0
10.742188 0.055254 0
10.746094 0.069622 0
10.750000 0.084903 0
10.753906 0.100917 0
10.757812 0.117438 0
10.761719 0.134199 0
10.765625 0.150893 0
10.769531 0.167183 0
10.773438 0.182714 0
10.777344 0.197124 0
10.781250 0.210054 0
10.785156 0.221170 0
10.789062 0.230167 0
10.792969 0.236791 0
10.796875 0.240844 0
10.800781 0.242198 1
10.804688 0.240797 0
10.808594 0.236664 0
10.812500 0.229895 0
10.816406 0.220658 0
10.820312 0.209187 0
10.824219 0.195769 0
10.828125 0.180730 0
10.832031 0.164427 0
10.835938 0.147229 0
10.839844 0.129504 0
10.843750 0.111605 0
10.847656 0.093863 0
10.851562 0.076572 0
10.855469 0.059982 0
10.859375 0.044297 0
10.863281 0.029664 0
10.867188 0.016167 0
10.871094 0.003814 0
10.875000 -0.007487 0
10.878906 -0.017960 0
10.882812 -0.028011 0
10.886719 -0.038269 0
10.890625 -0.049597 0
10.894531 -0.063044 0
10.898438 -0.079684 0
10.902344 -0.100321 0
10.906250 -0.125096 0
10.910156 -0.153070 0
10.914062 -0.181915 0
10.917969 -0.207846 0
10.921875 -0.225849 0
10.925781 -0.230145 2
10.929688 -0.214778 0
10.933594 -0.174182 0
10.937500 -0.103737 0
10.941406 -0.000469 0
10.945312 0.135931 0
10.949219 0.301738 0
10.953125 0.487837 0
10.957031 0.679121 0
10.960938 0.855437 0
10.964844 0.994473 0
10.968750 1.076183 0
10.972656 1.087462 3
10.976562 1.025187 0
10.980469 0.897495 0
10.984375 0.721642 0
10.988281 0.519589 0
10.992188 0.313296 0
10.996094 0.121102 0
11.000000 -0.044055 0
11.003906 -0.174722 0
11.007812 -0.268043 0
11.011719 -0.324699 0
11.015625 -0.348095 4
11.019531 -0.343777 0
11.023438 -0.318817 0
11.027344 -0.280986 0
11.031250 -0.237730 0
11.035156 -0.195197 0
11.039062 -0.157601 0
11.042969 -0.127059 0
11.046875 -0.103902 0
11.050781 -0.087244 0
11.054688 -0.075610 0
11.058594 -0.067435 0
11.062500 -0.061366 0
11.066406 -0.056388 0
11.070312 -0.051810 0
11.074219 -0.047201 0
11.078125 -0.042303 0
11.082031 -0.036967 0
11.085938 -0.031104 0
11.089844 -0.024655 0
11.093750 -0.017578 0
11.097656 -0.009839 0
11.101562 -0.001412 0
11.105469 0.007725 0
11.109375 0.017587 0
11.113281 0.028181 0
11.117188 0.039509 0
11.121094 0.051560 0
11.125000 0.064319 0
11.128906 0.077756 0
11.132812 0.091832 0
11.136719 0.106498 0
11.140625 0.121692 0
11.144531 0.137340 0
11.148438 0.153358 0
11.152344 0.169649 0
11.156250 0.186108 0
11.160156 0.202618 0
11.164062 0.219056 0
11.167969 0.235289 0
11.171875 0.251181 0
11.175781 0.266590 0
11.179688 0.281374 0
11.183594 0.295390 0
11.187500 0.308498 0
11.191406 0.320562 0
11.195312 0.331453 0
11.199219 0.341051 0
11.203125 0.349247 0
11.207031 0.355946 0
11.210938 0.361065 0
11.214844 0.364540 0
11.218750 0.366323 0
11.222656 0.366385 5
11.226562 0.364714 0
11.230469 0.361321 0
11.234375 0.356233 0
11.238281 0.349495 0
11.242188 0.341173 0
11.246094 0.331347 0
11.250000 0.320112 0
11.253906 0.307580 0
11.257812 0.293871 0
11.261719 0.279115 0
11.265625 0.263453 0
11.269531 0.247027 0
11.273438 0.229985 0
11.277344 0.212473 0
11.281250 0.194639 0
11.285156 0.176625 0
11.289062 0.158569 0
11.292969 0.140601 0
11.296875 0.122844 0
11.300781 0.105409 0
11.304688 0.088399 0
11.308594 0.071905 0
11.312500 0.056005 0
11.316406 0.040765 0
11.320312 0.026241 0
11.324219 0.012474 0
11.328125 -0.000504 0
11.332031 -0.012674 0
11.335938 -0.024024 0
11.339844 -0.034554 0
11.343750 -0.044273 0
11.347656 -0.053196 0
11.351562 -0.061345 0
11.355469 -0.068747 0
11.359375 -0.075434 0
11.363281 -0.081441 0
11.367188 -0.086809 0
11.371094 -0.091575 0
11.375000 -0.095782 0
11.378906 -0.099471 0
11.382812 -0.102684 0
11.386719 -0.105460 0
11.390625 -0.107840 0
11.394531 -0.109861 0
11.398438 -0.111559 0
11.402344 -0.112968 0
11.406250 -0.114120 0
11.410156 -0.115043 0
11.414062 -0.115765 0
11.417969 -0.116311 0
11.421875 -0.116703 0
11.425781 -0.116960 0
11.429688 -0.117102 0
11.433594 -0.117145 0
11.437500 -0.117102 0
11.441406 -0.116986 0
11.445312 -0.116808 0
11.449219 -0.116578 0
11.453125 -0.116304 0
11.457031 -0.115993 0
11.460938 -0.115652 0
11.464844 -0.115284 0
11.468750 -0.114896 0
11.472656 -0.114490 0
11.476562 -0.114070 0
11.480469 -0.113600 0
11.484375 -0.113123 0
11.488281 -0.112645 0
11.492188 -0.112166 0
11.496094 -0.111688 0
11.500000 -0.111210 0
11.503906 -0.110731 0
11.507812 -0.110252 0
11.511719 -0.109773 0
11.515625 -0.109293 0
11.519531 -0.108814 0
11.523438 -0.108334 0
11.527344 -0.107854 0
11.531250 -0.107373 0
11.535156 -0.106893 0
11.539062 -0.106412 0
11.542969 -0.105930 0
11.546875 -0.105449 0
11.550781 -0.104967 0
11.554688 -0.104484 0
11.558594 -0.104002 0
11.562500 -0.103518 0
11.566406 -0.103035 0
11.570312 -0.102551 0
11.574219 -0.102067 0
11.578125 -0.101582 0
11.582031 -0.101097 0
11.585938 -0.100612 0
11.589844 -0.100126 0
11.593750 -0.099639 0
11.597656 -0.099153 0
11.601562 -0.098665 0
11.605469 -0.098177 0
11.609375 -0.097689 0
11.613281 -0.097200 0
11.617188 -0.096710 0
11.621094 -0.096219 0
11.625000 -0.095727 0
11.628906 -0.095233 0
11.632812 -0.094738 0
11.636719 -0.094240 0
11.640625 -0.093738 0
11.644531 -0.093230 0
11.648438 -0.092716 0
11.652344 -0.092191 0
11.656250 -0.091653 0
11.660156 -0.091095 0
11.664062 -0.090510 0
11.667969 -0.089890 0
11.671875 -0.089222 0
11.675781 -0.088489 0
11.679688 -0.087673 0
11.683594 -0.086747 0
11.687500 -0.085681 0
11.691406 -0.084436 0
11.695312 -0.082967 0
11.699219 -0.081219 0
11.703125 -0.079130 0
11.707031 -0.076628 0
11.710938 -0.073633 0
11.714844 -0.070058 0
11.718750 -0.065809 0
11.722656 -0.060789 0
11.726562 -0.054900 0
11.730469 -0.048049 0
11.734375 -0.040149 0
11.738281 -0.031130 0
11.742188 -0.020940 0
11.746094 -0.009554 0
11.750000 0.003021 0
11.753906 0.016740 0
11.757812 0.031514 0
11.761719 0.047209 0
11.765625 0.063644 0
11.769531 0.080589 0
11.773438 0.097772 0
11.777344 0.114882 0
11.781250 0.131578 0
11.785156 0.147499 0
11.789062 0.162278 0
11.792969 0.175555 0
11.796875 0.186988 0
11.800781 0.196276 0
11.804688 0.203161 0
11.808594 0.207450 0
11.812500 0.209018 1
11.816406 0.207814 0
11.820312 0.203869 0
11.824219 0.197286 0
11.828125 0.188245 0
11.832031 0.176987 0
11.835938 0.163808 0
11.839844 0.149044 0
11.843750 0.133057 0
11.847656 0.116221 0
11.851562 0.098909 0
11.855469 0.081476 0
11.859375 0.064251 0
11.863281 0.047524 0
11.867188 0.031543 0
11.871094 0.016503 0
11.875000 0.002544 0
11.878906 -0.010263 0
11.882812 -0.021927 0
11.886719 -0.032563 0
11.890625 -0.042434 0
11.894531 -0.051994 0
11.898438 -0.061931 0
11.902344 -0.073170 0
11.906250 -0.086796 0
11.910156 -0.103865 0
11.914062 -0.125067 0
11.917969 -0.150311 0
11.921875 -0.178311 0
11.925781 -0.206321 0
11.929688 -0.230144 0
11.933594 -0.244436 2
11.937500 -0.243238 0
11.941406 -0.220572 0
11.945312 -0.171022 0
11.949219 -0.090322 0
11.953125 0.023848 0
11.957031 0.170689 0
11.960938 0.344831 0
11.964844 0.535092 0
11.968750 0.724293 0
11.972656 0.890880 0
11.976562 1.012501 0
11.980469 1.070805 3
11.984375 1.054276 0
11.988281 0.963717 0
11.992188 0.812383 0
11.996094 0.621562 0
12.000000 0.415260 0
12.003906 0.215281 0
12.007812 0.038139 0
12.011719 -0.105835 0
12.015625 -0.211841 0
12.019531 -0.279394 0
12.023438 -0.311285 0
12.027344 -0.312845 4
12.031250 -0.291293 0
12.035156 -0.254847 0
12.039062 -0.211598 0
12.042969 -0.168364 0
12.046875 -0.129894 0
12.050781 -0.098624 0
12.054688 -0.074986 0
12.058594 -0.058052 0
12.062500 -0.046241 0
12.066406 -0.037892 0
12.070312 -0.031590 0
12.074219 -0.026297 0
12.078125 -0.021323 0
12.082031 -0.016247 0
12.085938 -0.010827 0
12.089844 -0.004923 0
12.093750 0.001549 0
12.097656 0.008644 0
12.101562 0.016404 0
12.105469 0.024863 0
12.109375 0.034045 0
12.113281 0.043970 0
12.117188 0.054652 0
12.121094 0.066095 0
12.125000 0.078293 0
12.128906 0.091233 0
12.132812 0.104887 0
12.136719 0.119219 0
12.140625 0.134179 0
12.144531 0.149703 0
12.148438 0.165718 0
12.152344 0.182134 0
12.156250 0.198851 0
12.160156 0.215757 0
12.164062 0.232729 0
12.167969 0.249635 0
12.171875 0.266334 0
12.175781 0.282681 0
12.179688 0.298523 0
12.183594 0.313709 0
12.187500 0.328085 0
12.191406 0.341503 0
12.195312 0.353818 0
12.199219 0.364894 0
12.203125 0.374606 0
12.207031 0.382839 0
12.210938 0.389497 0
12.214844 0.394497 0
12.218750 0.397777 0
12.222656 0.399293 5
12.226562 0.399022 0
12.230469 0.396962 0
12.234375 0.393134 0
12.238281 0.387576 0
12.242188 0.380350 0
12.246094 0.371534 0
12.250000 0.361226 0
12.253906 0.349538 0
12.257812 0.336595 0
12.261719 0.322536 0
12.265625 0.307506 0
12.269531 0.291659 0
12.273438 0.275150 0
12.277344 0.258137 0
12.281250 0.240778 0
12.285156 0.223223 0
12.289062 0.205621 0
12.292969 0.188112 0
12.296875 0.170824 0
12.300781 0.153878 0
12.304688 0.137381 0
12.308594 0.121428 0
12.312500 0.106101 0
12.316406 0.091468 0
12.320312 0.077585 0
12.324219 0.064492 0
12.328125 0.052222 0
12.332031 0.040789 0
12.335938 0.030203 0
12.339844 0.020459 0
12.343750 0.011546 0
12.347656 0.003443 0
12.351562 -0.003875 0
12.355469 -0.010442 0
12.359375 -0.016293 0
12.363281 -0.021469 0
12.367188 -0.026011 0
12.371094 -0.029964 0
12.375000 -0.033371 0
12.378906 -0.036277 0
12.382812 -0.038726 0
12.386719 -0.040759 0
12.390625 -0.042417 0
12.394531 -0.043740 0
12.398438 -0.044762 0
12.402344 -0.045519 0
12.406250 -0.046041 0
12.410156 -0.046357 0
12.414062 -0.046494 0
12.417969 -0.046475 0
12.421875 -0.046321 0
12.425781 -0.046052 0
12.429688 -0.045684 0
12.433594 -0.045233 0
12.437500 -0.044710 0
12.441406 -0.044128 0
12.445312 -0.043496 0
12.449219 -0.042822 0
12.453125 -0.042115 0
12.457031 -0.041379 0
12.460938 -0.040620 0
12.464844 -0.039843 0
12.468750 -0.039051 0
12.472656 -0.038206 0
12.476562 -0.037353 0
12.480469 -0.036501 0
12.484375 -0.035651 0
12.488281 -0.034801 0
12.492188 -0.033953 0
12.496094 -0.033106 0
12.500000 -0.032260 0
12.503906 -0.031416 0
12.507812 -0.030573 0
12.511719 -0.029731 0
12.515625 -0.028890 0
12.519531 -0.028050 0
12.523438 -0.027212 0
12.527344 -0.026375 0
12.531250 -0.025539 0
12.535156 -0.024705 0
12.539062 -0.023872 0
12.542969 -0.023040 0
12.546875 -0.022210 0
12.550781 -0.021381 0
12.554688 -0.020553 0
12.558594 -0.019726 0
12.562500 -0.018901 0
12.566406 -0.018078 0
12.570312 -0.017255 0
12.574219 -0.016434 0
12.578125 -0.015615 0
12.582031 -0.014796 0
12.585938 -0.013980 0
12.589844 -0.013164 0
12.593750 -0.012350 0
12.597656 -0.011537 0
12.601562 -0.010726 0
12.605469 -0.009916 0
12.609375 -0.009106 0
12.613281 -0.008298 0
12.617188 -0.007490 0
12.621094 -0.006683 0
12.625000 -0.005874 0
12.628906 -0.005064 0
12.632812 -0.004251 0
12.636719 -0.003432 0
12.640625 -0.002604 0
12.644531 -0.001765 0
12.648438 -0.000906 0
12.652344 -0.000021 0
12.656250 0.000900 0
12.660156 0.001872 0
12.664062 0.002912 0
12.667969 0.004043 0
12.671875 0.005294 0
12.675781 0.006701 0
12.679688 0.008306 0
12.683594 0.010162 0
12.687500 0.012331 0
12.691406 0.014883 0
12.695312 0.017901 0
12.699219 0.021473 0
12.703125 0.025697 0
12.707031 0.030676 0
12.710938 0.036515 0
12.714844 0.043315 0
12.718750 0.051172 0
12.722656 0.060166 0
12.726562 0.070360 0
12.730469 0.081785 0
12.734375 0.094442 0
12.738281 0.108289 0
12.742188 0.123237 0
12.746094 0.139146 0
12.750000 0.155825 0
12.753906 0.173030 0
12.757812 0.190468 0
12.761719 0.207807 0
12.765625 0.224678 0
12.769531 0.240695 0
12.773438 0.255465 0
12.777344 0.268607 0
12.781250 0.279764 0
12.785156 0.288623 0
12.789062 0.294928 0
12.792969 0.298496 0
12.796875 0.299219 1
12.800781 0.297078 0
12.804688 0.292138 0
12.808594 0.284547 0
12.812500 0.274531 0
12.816406 0.262379 0
12.820312 0.248433 0
12.824219 0.233070 0
12.828125 0.216687 0
12.832031 0.199684 0
12.835938 0.182446 0
12.839844 0.165334 0
12.843750 0.148669 0
12.847656 0.132725 0
12.851562 0.117722 0
12.855469 0.103817 0
12.859375 0.091094 0
12.863281 0.079551 0
12.867188 0.069068 0
12.871094 0.059365 0
12.875000 0.049949 0
12.878906 0.040069 0
12.882812 0.028713 0
12.886719 0.014713 0
12.890625 -0.003019 0
12.894531 -0.025088 0
12.898438 -0.051131 0
12.902344 -0.079373 0
12.906250 -0.106397 0
12.910156 -0.127260 0
12.914062 -0.135941 2
12.917969 -0.125991 0
12.921875 -0.091214 0
12.925781 -0.026314 0
12.929688 0.072343 0
12.933594 0.205622 0
12.937500 0.370065 0
12.941406 0.556282 0
12.945312 0.748161 0
12.949219 0.923905 0
12.953125 1.059420 0
12.957031 1.133513 3
12.960938 1.133279 0
12.964844 1.058840 0
12.968750 0.921168 0
12.972656 0.739056 0
12.976562 0.535150 0
12.980469 0.331228 0
12.984375 0.144819 0
12.988281 -0.012215 0
12.992188 -0.133468 0
12.996094 -0.216976 0
13.000000 -0.264169 0
13.003906 -0.279099 4
13.007812 -0.267863 0
13.011719 -0.237922 0
13.015625 -0.197178 0
13.019531 -0.152907 0
13.023438 -0.110828 0
13.027344 -0.074580 0
13.031250 -0.045710 0
13.035156 -0.024103 0
13.039062 -0.008601 0
13.042969 0.002367 0
13.046875 0.010343 0
13.050781 0.016587 0
13.054688 0.022010 0
13.058594 0.027209 0
13.062500 0.032549 0
13.066406 0.038243 0
13.070312 0.044415 0
13.074219 0.051141 0
13.078125 0.058473 0
13.082031 0.066449 0
13.085938 0.075101 0
13.089844 0.084453 0
13.093750 0.094524 0
13.097656 0.105327 0
13.101562 0.116866 0
13.105469 0.129138 0
13.109375 0.142130 0
13.113281 0.155819 0
13.117188 0.170171 0
13.121094 0.185142 0
13.125000 0.200674 0
13.128906 0.216699 0
13.132812 0.233138 0
13.136719 0.249897 0
13.140625 0.266875 0
13.144531 0.283958 0
13.148438 0.301023 0
13.152344 0.317940 0
13.156250 0.334573 0
13.160156 0.350780 0
13.164062 0.366415 0
13.167969 0.381334 0
13.171875 0.395394 0
13.175781 0.408454 0
13.179688 0.420380 0
13.183594 0.431047 0
13.187500 0.440338 0
13.191406 0.448152 0
13.195312 0.454400 0
13.199219 0.459009 0
13.203125 0.461924 0
13.207031 0.463110 5
13.210938 0.462548 0
13.214844 0.460241 0
13.218750 0.456210 0
13.222656 0.450497 0
13.226562 0.443160 0
13.230469 0.434278 0
13.234375 0.423942 0
13.238281 0.412260 0
13.242188 0.399353 0
13.246094 0.385350 0
13.250000 0.370390 0
13.253906 0.354619 0
13.257812 0.338184 0
13.261719 0.321236 0
13.265625 0.303924 0
13.269531 0.286393 0
13.273438 0.268785 0
13.277344 0.251233 0
13.281250 0.233864 0
13.285156 0.216794 0
13.289062 0.200129 0
13.292969 0.183962 0
13.296875 0.168376 0
13.300781 0.153440 0
13.304688 0.139212 0
13.308594 0.125737 0
13.312500 0.113048 0
13.316406 0.101167 0
13.320312 0.090105 0
13.324219 0.079865 0
13.328125 0.070440 0
13.332031 0.061814 0
13.335938 0.053966 0
13.339844 0.046868 0
13.343750 0.040489 0
13.347656 0.034792 0
13.351562 0.029739 0
13.355469 0.025289 0
13.359375 0.021400 0
13.363281 0.018030 0
13.367188 0.015138 0
13.371094 0.012681 0
13.375000 0.010621 0
13.378906 0.008917 0
13.382812 0.007535 0
13.386719 0.006440 0
13.390625 0.005599 0
13.394531 0.004983 0
13.398438 0.004564 0
13.402344 0.004318 0
13.406250 0.004222 0
13.410156 0.004254 0
13.414062 0.004398 0
13.417969 0.004637 0
13.421875 0.004956 0
13.425781 0.005343 0
13.429688 0.005787 0
13.433594 0.006278 0
13.437500 0.006808 0
13.441406 0.007369 0
13.445312 0.007956 0
13.449219 0.008564 0
13.453125 0.009187 0
13.457031 0.009823 0
13.460938 0.010477 0
13.464844 0.011173 0
13.468750 0.011864 0
13.472656 0.012551 0
13.476562 0.013232 0
13.480469 0.013910 0
13.484375 0.014582 0
13.488281 0.015250 0
13.492188 0.015914 0
13.496094 0.016573 0
13.500000 0.017227 0
13.503906 0.017876 0
13.507812 0.018521 0
13.511719 0.019161 0
13.515625 0.019797 0
13.519531 0.020428 0
13.523438 0.021055 0
13.527344 0.021677 0
13.531250 0.022294 0
13.535156 0.022907 0
13.539062 0.023515 0
13.542969 0.024119 0
13.546875 0.024718 0
13.550781 0.025312 0
13.554688 0.025902 0
13.558594 0.026488 0
13.562500 0.027069 0
13.566406 0.027645 0
13.570312 0.028217 0
13.574219 0.028784 0
13.578125 0.029347 0
13.582031 0.029906 0
13.585938 0.030460 0
13.589844 0.031009 0
13.593750 0.031555 0
13.597656 0.032096 0
13.601562 0.032633 0
13.605469 0.033166 0
13.609375 0.033695 0
13.613281 0.034221 0
13.617188 0.034744 0
13.621094 0.035266 0
13.625000 0.035787 0
13.628906 0.036309 0
13.632812 0.036834 0
13.636719 0.037367 0
13.640625 0.037912 0
13.644531 0.038474 0
13.648438 0.039062 0
13.652344 0.039688 0
13.656250 0.040364 0
13.660156 0.041111 0
13.664062 0.041950 0
13.667969 0.042911 0
13.671875 0.044029 0
13.675781 0.045346 0
13.679688 0.046915 0
13.683594 0.048795 0
13.687500 0.051055 0
13.691406 0.053772 0
13.695312 0.057033 0
13.699219 0.060931 0
13.703125 0.065563 0
13.707031 0.071028 0
13.710938 0.077424 0
13.714844 0.084841 0
13.718750 0.093358 0
13.722656 0.103034 0
13.726562 0.113906 0
13.730469 0.125978 0
13.734375 0.139216 0
13.738281 0.153547 0
13.742188 0.168848 0
13.746094 0.184951 0
13.750000 0.201636 0
13.753906 0.218640 0
13.757812 0.235656 0
13.761719 0.252347 0
13.765625 0.268351 0
13.769531 0.283295 0
13.773438 0.296809 0
13.777344 0.308542 0
13.781250 0.318176 0
13.785156 0.325439 0
13.789062 0.330118 0
13.792969 0.332071 1
13.796875 0.331231 0
13.800781 0.327612 0
13.804688 0.321305 0
13.808594 0.312477 0
13.812500 0.301365 0
13.816406 0.288259 0
13.820312 0.273495 0
13.824219 0.257437 0
13.828125 0.240465 0
13.832031 0.222957 0
13.835938 0.205278 0
13.839844 0.187764 0
13.843750 0.170716 0
13.847656 0.154390 0
13.851562 0.138991 0
13.855469 0.124664 0
13.859375 0.111491 0
13.863281 0.099469 0
13.867188 0.088488 0
13.871094 0.078295 0
13.875000 0.068439 0
13.878906 0.058234 0
13.882812 0.046751 0
13.886719 0.032890 0
13.890625 0.015578 0
13.894531 -0.005898 0
13.898438 -0.031455 0
13.902344 -0.059791 0
13.906250 -0.088111 0
13.910156 -0.112138 0
13.914062 -0.126429 2
13.917969 -0.124926 0
13.921875 -0.101573 0
13.925781 -0.050908 0
13.929688 0.031324 0
13.933594 0.147329 0
13.937500 0.296040 0
13.941406 0.471605 0
13.945312 0.662171 0
13.949219 0.849814 0
13.953125 1.012394 0
13.957031 1.127412 0
13.960938 1.177001 3
13.964844 1.154569 0
13.968750 1.063286 0
13.972656 0.914787 0
13.976562 0.727355 0
13.980469 0.521901 0
13.984375 0.318087 0
13.988281 0.131662 0
13.992188 -0.026626 0
13.996094 -0.150817 0
14.000000 -0.238887 0
14.003906 -0.291851 0
14.007812 -0.313091 4
14.011719 -0.307868 0
14.015625 -0.282787 0
14.019531 -0.245075 0
14.023438 -0.201694 0
14.027344 -0.158497 0
14.031250 -0.119633 0
14.035156 -0.087367 0
14.039062 -0.062286 0
14.042969 -0.043767 0
14.046875 -0.030530 0
14.050781 -0.021103 0
14.054688 -0.014141 0
14.058594 -0.008579 0
14.062500 -0.003657 0
14.066406 0.001124 0
14.070312 0.006071 0
14.074219 0.011369 0
14.078125 0.017125 0
14.082031 0.023409 0
14.085938 0.030269 0
14.089844 0.037740 0
14.093750 0.045852 0
14.097656 0.054627 0
14.101562 0.064085 0
14.105469 0.074237 0
14.109375 0.085091 0
14.113281 0.096645 0
14.117188 0.108891 0
14.121094 0.121811 0
14.125000 0.135381 0
14.128906 0.149562 0
14.132812 0.164310 0
14.136719 0.179568 0
14.140625 0.195270 0
14.144531 0.211338 0
14.148438 0.227685 0
14.152344 0.244216 0
14.156250 0.260824 0
14.160156 0.277397 0
14.164062 0.293814 0
14.167969 0.309951 0
14.171875 0.325676 0
14.175781 0.340860 0
14.179688 0.355368 0
14.183594 0.369069 0
14.187500 0.381834 0
14.191406 0.393540 0
14.195312 0.404070 0
14.199219 0.413315 0
14.203125 0.421178 0
14.207031 0.427574 0
14.210938 0.432429 0
14.214844 0.435686 0
14.218750 0.437304 5
14.222656 0.437258 0
14.226562 0.435539 0
14.230469 0.432156 0
14.234375 0.427134 0
14.238281 0.420518 0
14.242188 0.412364 0
14.246094 0.402748 0
14.250000 0.391755 0
14.253906 0.379487 0
14.257812 0.366053 0
14.261719 0.351574 0
14.265625 0.336177 0
14.269531 0.319993 0
14.273438 0.303160 0
14.277344 0.285813 0
14.281250 0.268090 0
14.285156 0.250125 0
14.289062 0.232048 0
14.292969 0.213986 0
14.296875 0.196055 0
14.300781 0.178366 0
14.304688 0.161020 0
14.308594 0.144110 0
14.312500 0.127714 0
14.316406 0.111905 0
14.320312 0.096741 0
14.324219 0.082272 0
14.328125 0.068535 0
14.332031 0.055558 0
14.335938 0.043359 0
14.339844 0.031948 0
14.343750 0.021325 0
14.347656 0.011482 0
14.351562 0.002406 0
14.355469 -0.005923 0
14.359375 -0.013529 0
14.363281 -0.020442 0
14.367188 -0.026694 0
14.371094 -0.032321 0
14.375000 -0.037359 0
14.378906 -0.041847 0
14.382812 -0.045822 0
14.386719 -0.049324 0
14.390625 -0.052391 0
14.394531 -0.055060 0
14.398438 -0.057367 0
14.402344 -0.059346 0
14.406250 -0.061029 0
14.410156 -0.062449 0
14.414062 -0.063633 0
14.417969 -0.064608 0
14.421875 -0.065399 0
14.425781 -0.066027 0
14.429688 -0.066514 0
14.433594 -0.066878 0
14.437500 -0.067136 0
14.441406 -0.067302 0
14.445312 -0.067389 0
14.449219 -0.067409 0
14.453125 -0.067373 0
14.457031 -0.067290 0
14.460938 -0.067166 0
14.464844 -0.067010 0
14.468750 -0.066826 0
14.472656 -0.066620 0
14.476562 -0.066396 0
14.480469 -0.066157 0
14.484375 -0.065907 0
14.488281 -0.065608 0
14.492188 -0.065303 0
14.496094 -0.065001 0
14.500000 -0.064703 0
14.503906 -0.064407 0
14.507812 -0.064115 0
14.511719 -0.063826 0
14.515625 -0.063541 0
14.519531 -0.063258 0
14.523438 -0.062978 0
14.527344 -0.062702 0
14.531250 -0.062429 0
14.535156 -0.062158 0
14.539062 -0.061891 0
14.542969 -0.061626 0
14.546875 -0.061365 0
14.550781 -0.061106 0
14.554688 -0.060851 0
14.558594 -0.060598 0
14.562500 -0.060348 0
14.566406 -0.060101 0
14.570312 -0.059857 0
14.574219 -0.059615 0
14.578125 -0.059377 0
14.582031 -0.059141 0
14.585938 -0.058907 0
14.589844 -0.058677 0
14.593750 -0.058449 0
14.597656 -0.058223 0
14.601562 -0.058001 0
14.605469 -0.057780 0
14.609375 -0.057563 0
14.613281 -0.057348 0
14.617188 -0.057135 0
14.621094 -0.056925 0
14.625000 -0.056717 0
14.628906 -0.056511 0
14.632812 -0.056307 0
14.636719 -0.056106 0
14.640625 -0.055906 0
14.644531 -0.055707 0
14.648438 -0.055509 0
14.652344 -0.055311 0
14.656250 -0.055113 0
14.660156 -0.054912 0
14.664062 -0.054707 0
14.667969 -0.054495 0
14.671875 -0.054272 0
14.675781 -0.054034 0
14.679688 -0.053775 0
14.683594 -0.053485 0
14.687500 -0.053155 0
14.691406 -0.052770 0
14.695312 -0.052313 0
14.699219 -0.051762 0
14.703125 -0.051089 0
14.707031 -0.050263 0
14.710938 -0.049244 0
14.714844 -0.047985 0
14.718750 -0.046431 0
14.722656 -0.044521 0
14.726562 -0.042185 0
14.730469 -0.039346 0
14.734375 -0.035919 0
14.738281 -0.031817 0
14.742188 -0.026950 0
14.746094 -0.021226 0
14.750000 -0.014560 0
14.753906 -0.006875 0
14.757812 0.001892 0
14.761719 0.011789 0
14.765625 0.022835 0
14.769531 0.035023 0
14.773438 0.048311 0
14.777344 0.062617 0
14.781250 0.077822 0
14.785156 0.093759 0
14.789062 0.110223 0
14.792969 0.126968 0
14.796875 0.143711 0
14.800781 0.160142 0
14.804688 0.175931 0
14.808594 0.190737 0
14.812500 0.204220 0
14.816406 0.216057 0
14.820312 0.225948 0
14.824219 0.233635 0
14.828125 0.238907 0
14.832031 0.241612 0
14.835938 0.241663 1
14.839844 0.239043 0
14.843750 0.233804 0
14.847656 0.226066 0
14.851562 0.216012 0
14.855469 0.203881 0
14.859375 0.189955 0
14.863281 0.174553 0
14.867188 0.158014 0
14.871094 0.140686 0
14.875000 0.122914 0
14.878906 0.105028 0
14.882812 0.087334 0
14.886719 0.070103 0
14.890625 0.053570 0
14.894531 0.037923 0
14.898438 0.023298 0
14.902344 0.009775 0
14.906250 -0.002633 0
14.910156 -0.014007 0
14.914062 -0.024542 0
14.917969 -0.034596 0
14.921875 -0.044723 0
14.925781 -0.055695 0
14.929688 -0.068470 0
14.933594 -0.084074 0
14.937500 -0.103371 0
14.941406 -0.126736 0
14.945312 -0.153675 0
14.949219 -0.182508 0
14.953125 -0.210216 0
14.957031 -0.232537 0
14.960938 -0.244301 2
14.964844 -0.239916 0
14.968750 -0.213888 0
14.972656 -0.161309 0
14.976562 -0.078384 0
14.980469 0.036857 0
14.984375 0.183517 0
14.988281 0.356567 0
14.992188 0.545772 0
14.996094 0.735487 0
15.000000 0.905946 0
15.003906 1.036200 0
15.007812 1.108209 0
15.011719 1.110891 3
15.015625 1.041802 0
15.019531 0.909431 0
15.023438 0.731076 0
15.027344 0.528205 0
15.031250 0.322042 0
15.035156 0.130226 0
15.039062 -0.034802 0
15.042969 -0.165838 0
15.046875 -0.260082 0
15.050781 -0.318127 0
15.054688 -0.343192 4
15.058594 -0.340564 0
15.062500 -0.317035 0
15.066406 -0.280131 0
15.070312 -0.237160 0
15.074219 -0.194272 0
15.078125 -0.155817 0
15.082031 -0.124128 0
15.085938 -0.099766 0
15.089844 -0.082025 0
15.093750 -0.069537 0
15.097656 -0.060768 0
15.101562 -0.054345 0
15.105469 -0.049204 0
15.109375 -0.044602 0
15.113281 -0.040062 0
15.117188 -0.035296 0
15.121094 -0.030134 0
15.125000 -0.024476 0
15.128906 -0.018257 0
15.132812 -0.011432 0
15.136719 -0.003967 0
15.140625 0.004167 0
15.144531 0.012993 0
15.148438 0.022527 0
15.152344 0.032781 0
15.156250 0.043757 0
15.160156 0.055451 0
15.164062 0.067851 0
15.167969 0.080933 0
15.171875 0.094665 0
15.175781 0.109004 0
15.179688 0.123895 0
15.183594 0.139273 0
15.187500 0.155063 0
15.191406 0.171175 0
15.195312 0.187515 0
15.199219 0.203973 0
15.203125 0.220434 0
15.207031 0.236776 0
15.210938 0.252866 0
15.214844 0.268573 0
15.218750 0.283756 0
15.222656 0.298279 0
15.226562 0.312002 0
15.230469 0.324791 0
15.234375 0.336516 0
15.238281 0.347053 0
15.242188 0.356290 0
15.246094 0.364122 0
15.250000 0.370461 0
15.253906 0.375229 0
15.257812 0.378368 0
15.261719 0.379834 5
15.265625 0.379601 0
15.269531 0.377663 0
15.273438 0.374030 0
15.277344 0.368731 0
15.281250 0.361814 0
15.285156 0.353342 0
15.289062 0.343395 0
15.292969 0.332066 0
15.296875 0.319464 0
15.300781 0.305706 0
15.304688 0.290920 0
15.308594 0.275240 0
15.312500 0.258805 0
15.316406 0.241759 0
15.320312 0.224244 0
15.324219 0.206404 0
15.328125 0.188375 0
15.332031 0.170294 0
15.335938 0.152287 0
15.339844 0.134473 0
15.343750 0.116964 0
15.347656 0.099860 0
15.351562 0.083250 0
15.355469 0.067214 0
15.359375 0.051817 0
15.363281 0.037115 0
15.367188 0.023152 0
15.371094 0.009960 0
15.375000 -0.002437 0
15.378906 -0.014029 0
15.382812 -0.024812 0
15.386719 -0.034790 0
15.390625 -0.043979 0
15.394531 -0.052395 0
15.398438 -0.060065 0
15.402344 -0.067019 0
15.406250 -0.073289 0
15.410156 -0.078912 0
15.414062 -0.083927 0
15.417969 -0.088372 0
15.421875 -0.092289 0
15.425781 -0.095718 0
15.429688 -0.098698 0
15.433594 -0.101269 0
15.437500 -0.103467 0
15.441406 -0.105329 0
15.445312 -0.106888 0
15.449219 -0.108178 0
15.453125 -0.109226 0
15.457031 -0.110061 0
15.460938 -0.110708 0
15.464844 -0.111189 0
15.468750 -0.111527 0
15.472656 -0.111740 0
15.476562 -0.111844 0
15.480469 -0.111855 0
15.484375 -0.111785 0
15.488281 -0.111647 0
15.492188 -0.111451 0
15.496094 -0.111206 0
15.500000 -0.110919 0
15.503906 -0.110598 0
15.507812 -0.110247 0
15.511719 -0.109871 0
15.515625 -0.109476 0
15.519531 -0.109064 0
15.523438 -0.108630 0
15.527344 -0.108148 0
15.531250 -0.107667 0
15.535156 -0.107185 0
15.539062 -0.106703 0
15.542969 -0.106220 0
15.546875 -0.105737 0
15.550781 -0.105254 0
15.554688 -0.104771 0
15.558594 -0.104287 0
15.562500 -0.103803 0
15.566406 -0.103318 0
15.570312 -0.102833 0
15.574219 -0.102348 0
15.578125 -0.101862 0
15.582031 -0.101376 0
15.585938 -0.100890 0
15.589844 -0.100403 0
15.593750 -0.099915 0
15.597656 -0.099427 0
15.601562 -0.098939 0
15.605469 -0.098450 0
15.609375 -0.097961 0
15.613281 -0.097471 0
15.617188 -0.096981 0
15.621094 -0.096490 0
15.625000 -0.095999 0
15.628906 -0.095507 0
15.632812 -0.095015 0
15.636719 -0.094522 0
15.640625 -0.094029 0
15.644531 -0.093535 0
15.648438 -0.093040 0
15.652344 -0.092545 0
15.656250 -0.092049 0
15.660156 -0.091552 0
15.664062 -0.091055 0
15.667969 -0.090557 0
15.671875 -0.090057 0
15.675781 -0.089557 0
15.679688 -0.089054 0
15.683594 -0.088549 0
15.687500 -0.088040 0
15.691406 -0.087527 0
15.695312 -0.087008 0
15.699219 -0.086481 0
15.703125 -0.085941 0
15.707031 -0.085385 0
15.710938 -0.084808 0
15.714844 -0.084200 0
15.718750 -0.083552 0
15.722656 -0.082850 0
15.726562 -0.082078 0
15.730469 -0.081213 0
15.734375 -0.080231 0
15.738281 -0.079096 0
15.742188 -0.077772 0
15.746094 -0.076209 0
15.750000 -0.074353 0
15.753906 -0.072141 0
15.757812 -0.069500 0
15.761719 -0.066351 0
15.765625 -0.062606 0
15.769531 -0.058175 0
15.773438 -0.052962 0
15.777344 -0.046873 0
15.781250 -0.039819 0
15.785156 -0.031718 0
15.789062 -0.022504 0
15.792969 -0.012131 0
15.796875 -0.000580 0
15.800781 0.012139 0
15.804688 0.025977 0
15.808594 0.040843 0
15.812500 0.056603 0
15.816406 0.073077 0
15.820312 0.090041 0
15.824219 0.107228 0
15.828125 0.124335 0
15.832031 0.141031 0
15.835938 0.156966 0
15.839844 0.171783 0
15.843750 0.185132 0
15.847656 0.196682 0
15.851562 0.206135 0
15.855469 0.213240 0
15.859375 0.217802 0
15.863281 0.219693 1
15.867188 0.218856 0
15.871094 0.215309 0
15.875000 0.209143 0
15.878906 0.200520 0
15.882812 0.189665 0
15.886719 0.176857 0
15.890625 0.162413 0
15.894531 0.146682 0
15.898438 0.130026 0
15.902344 0.112807 0
15.906250 0.095376 0
15.910156 0.078061 0
15.914062 0.061155 0
15.917969 0.044912 0
15.921875 0.029540 0
15.925781 0.015192 0
15.929688 0.001962 0
15.933594 -0.010125 0
15.937500 -0.021140 0
15.941406 -0.031274 0
15.945312 -0.040885 0
15.949219 -0.050540 0
15.953125 -0.061038 0
15.957031 -0.073378 0
15.960938 -0.088629 0
15.964844 -0.107683 0
15.968750 -0.130891 0
15.972656 -0.157650 0
15.976562 -0.186070 0
15.980469 -0.212830 0
15.984375 -0.233317 0
15.988281 -0.242021 2
15.992188 -0.233078 0
15.996094 -0.200837 0
16.000000 -0.140386 0
16.003906 -0.048163 0
16.007812 0.077183 0
16.011719 0.233563 0
16.015625 0.414070 0
16.019531 0.606033 0
16.023438 0.791296 0
16.027344 0.948295 0
16.031250 1.055861 0
16.035156 1.097830 3
16.039062 1.064679 0
16.042969 0.959553 0
16.046875 0.797784 0
16.050781 0.601637 0
16.054688 0.394948 0
16.058594 0.198529 0
16.062500 0.027567 0
16.066406 -0.108870 0
16.070312 -0.206982 0
16.074219 -0.267025 0
16.078125 -0.292349 4
16.082031 -0.288707 0
16.085938 -0.263573 0
16.089844 -0.225215 0
16.093750 -0.181532 0
16.097656 -0.138967 0
16.101562 -0.101807 0
16.105469 -0.072058 0
16.109375 -0.049836 0
16.113281 -0.034039 0
16.117188 -0.023041 0
16.121094 -0.015210 0
16.125000 -0.009205 0
16.128906 -0.004055 0
16.132812 0.000869 0
16.136719 0.005949 0
16.140625 0.011404 0
16.144531 0.017360 0
16.148438 0.023895 0
16.152344 0.031060 0
16.156250 0.038895 0
16.160156 0.047432 0
16.164062 0.056696 0
16.167969 0.066705 0
16.171875 0.077471 0
16.175781 0.088996 0
16.179688 0.101275 0
16.183594 0.114289 0
16.187500 0.128013 0
16.191406 0.142406 0
16.195312 0.157416 0
16.199219 0.172980 0
16.203125 0.189020 0
16.207031 0.205447 0
16.210938 0.222158 0
16.214844 0.239040 0
16.218750 0.255968 0
16.222656 0.272811 0
16.226562 0.289426 0
16.230469 0.305666 0
16.234375 0.321382 0
16.238281 0.336421 0
16.242188 0.350630 0
16.246094 0.363862 0
16.250000 0.375973 0
16.253906 0.386830 0
16.257812 0.396308 0
16.261719 0.404296 0
16.265625 0.410699 0
16.269531 0.415438 0
16.273438 0.418452 0
16.277344 0.419701 5
16.281250 0.419164 0
16.285156 0.416843 0
16.289062 0.412760 0
16.292969 0.406956 0
16.296875 0.399494 0
16.300781 0.390457 0
16.304688 0.379941 0
16.308594 0.368061 0
16.312500 0.354944 0
16.316406 0.340728 0
16.320312 0.325560 0
16.324219 0.309592 0
16.328125 0.292981 0
16.332031 0.275884 0
16.335938 0.258457 0
16.339844 0.240851 0
16.343750 0.223212 0
16.347656 0.205679 0
16.351562 0.188381 0
16.355469 0.171434 0
16.359375 0.154946 0
16.363281 0.139009 0
16.367188 0.123704 0
16.371094 0.109098 0
16.375000 0.095245 0
16.378906 0.082186 0
16.382812 0.069948 0
16.386719 0.058549 0
16.390625 0.047995 0
16.394531 0.038282 0
16.398438 0.029396 0
16.402344 0.021318 0
16.406250 0.014021 0
16.410156 0.007472 0
16.414062 0.001635 0
16.417969 -0.003531 0
16.421875 -0.008068 0
16.425781 -0.012018 0
16.429688 -0.015428 0
16.433594 -0.018340 0
16.437500 -0.020798 0
16.441406 -0.022843 0
16.445312 -0.024518 0
16.449219 -0.025858 0
16.453125 -0.026902 0
16.457031 -0.027682 0
16.460938 -0.028230 0
16.464844 -0.028573 0
16.468750 -0.028739 0
16.472656 -0.028750 0
16.476562 -0.028628 0
16.480469 -0.028392 0
16.484375 -0.028057 0
16.488281 -0.027640 0
16.492188 -0.027153 0
16.496094 -0.026606 0
16.500000 -0.026010 0
16.503906 -0.025373 0
16.507812 -0.024703 0
16.511719 -0.024004 0
16.515625 -0.023283 0
16.519531 -0.022543 0
16.523438 -0.021789 0
16.527344 -0.020982 0
16.531250 -0.020167 0
16.535156 -0.019354 0
16.539062 -0.018542 0
16.542969 -0.017731 0
16.546875 -0.016921 0
16.550781 -0.016113 0
16.554688 -0.015305 0
16.558594 -0.014499 0
16.562500 -0.013695 0
16.566406 -0.012891 0
16.570312 -0.012089 0
16.574219 -0.011288 0
16.578125 -0.010489 0
16.582031 -0.009691 0
16.585938 -0.008894 0
16.589844 -0.008098 0
16.593750 -0.007304 0
16.597656 -0.006511 0
16.601562 -0.005720 0
16.605469 -0.004930 0
16.609375 -0.004141 0
16.613281 -0.003354 0
16.617188 -0.002568 0
16.621094 -0.001783 0
16.625000 -0.001000 0
16.628906 -0.000218 0
16.632812 0.000562 0
16.636719 0.001341 0
16.640625 0.002118 0
16.644531 0.002894 0
16.648438 0.003668 0
16.652344 0.004442 0
16.656250 0.005213 0
16.660156 0.005984 0
16.664062 0.006753 0
16.667969 0.007522 0
16.671875 0.008290 0
16.675781 0.009057 0
16.679688 0.009826 0
16.683594 0.010596 0
16.687500 0.011369 0
16.691406 0.012147 0
16.695312 0.012934 0
16.699219 0.013733 0
16.703125 0.014550 0
16.707031 0.015393 0
16.710938 0.016273 0
16.714844 0.017202 0
16.718750 0.018198 0
16.722656 0.019284 0
16.726562 0.020489 0
16.730469 0.021846 0
16.734375 0.023400 0
16.738281 0.025202 0
16.742188 0.027313 0
16.746094 0.029803 0
16.750000 0.032753 0
16.753906 0.036252 0
16.757812 0.040396 0
16.761719 0.045288 0
16.765625 0.051033 0
16.769531 0.057732 0
16.773438 0.065480 0
16.777344 0.074360 0
16.781250 0.084434 0
16.785156 0.095736 0
16.789062 0.108270 0
16.792969 0.121996 0
16.796875 0.136828 0
16.800781 0.152632 0
16.804688 0.169220 0
16.808594 0.186352 0
16.812500 0.203741 0
16.816406 0.221056 0
16.820312 0.237934 0
16.824219 0.253990 0
16.828125 0.268833 0
16.832031 0.282079 0
16.835938 0.293371 0
16.839844 0.302394 0
16.843750 0.308886 0
16.847656 0.312657 0
16.851562 0.313594 1
16.855469 0.311669 0
16.859375 0.306940 0
16.863281 0.299546 0
16.867188 0.289707 0
16.871094 0.277704 0
16.875000 0.263874 0
16.878906 0.248591 0
16.882812 0.232248 0
16.886719 0.215246 0
16.890625 0.197970 0
16.894531 0.180784 0
16.898438 0.164012 0
16.902344 0.147934 0
16.906250 0.132773 0
16.910156 0.118694 0
16.914062 0.105790 0
16.917969 0.094070 0
16.921875 0.083429 0
16.925781 0.073611 0
16.929688 0.064151 0
16.933594 0.054331 0
16.937500 0.043173 0
16.941406 0.029520 0
16.945312 0.012259 0
16.949219 -0.009299 0
16.953125 -0.034943 0
16.957031 -0.063102 0
16.960938 -0.090583 0
16.964844 -0.112639 0
16.968750 -0.123374 2
16.972656 -0.116374 0
16.976562 -0.085390 0
16.980469 -0.024978 0
16.984375 0.068772 0
16.988281 0.197193 0
16.992188 0.357552 0
16.996094 0.541413 0
17.000000 0.733668 0
17.003906 0.913257 0
17.007812 1.056196 0
17.011719 1.140563 0
17.015625 1.151954 3
17.019531 1.087756 0
17.023438 0.957245 0
17.027344 0.778948 0
17.031250 0.576073 0
17.035156 0.371385 0
17.039062 0.183424 0
17.042969 0.024822 0
17.046875 -0.097563 0
17.050781 -0.181585 0
17.054688 -0.228686 0
17.058594 -0.243068 4
17.062500 -0.231072 0
17.066406 -0.200447 0
17.070312 -0.159352 0
17.074219 -0.115216 0
17.078125 -0.073768 0
17.082031 -0.038529 0
17.085938 -0.010855 0
17.089844 0.009565 0
17.093750 0.024030 0
17.097656 0.034189 0
17.101562 0.041589 0
17.105469 0.047460 0
17.109375 0.052665 0
17.113281 0.057754 0
17.117188 0.063056 0
17.121094 0.068763 0
17.125000 0.074983 0
17.128906 0.081785 0
17.132812 0.089219 0
17.136719 0.097320 0
17.140625 0.106120 0
17.144531 0.115640 0
17.148438 0.125899 0
17.152344 0.136905 0
17.156250 0.148661 0
17.160156 0.161158 0
17.164062 0.174379 0
17.167969 0.188294 0
17.171875 0.202863 0
17.175781 0.218034 0
17.179688 0.233740 0
17.183594 0.249906 0
17.187500 0.266441 0
17.191406 0.283243 0
17.195312 0.300200 0
17.199219 0.317188 0
17.203125 0.334075 0
17.207031 0.350723 0
17.210938 0.366985 0
17.214844 0.382714 0
17.218750 0.397759 0
17.222656 0.411971 0
17.226562 0.425204 0
17.230469 0.437316 0
17.234375 0.448177 0
17.238281 0.457664 0
17.242188 0.465667 0
17.246094 0.472093 0
17.250000 0.476864 0
17.253906 0.479920 0
17.257812 0.481221 5
17.261719 0.480746 0
17.265625 0.478495 0
17.269531 0.474489 0
17.273438 0.468769 0
17.277344 0.461396 0
17.281250 0.452448 0
17.285156 0.442021 0
17.289062 0.430227 0
17.292969 0.417189 0
17.296875 0.403043 0
17.300781 0.387932 0
17.304688 0.372007 0
17.308594 0.355422 0
17.312500 0.338330 0
17.316406 0.320887 0
17.320312 0.303241 0
17.324219 0.285539 0
17.328125 0.267918 0
17.332031 0.250505 0
17.335938 0.233419 0
17.339844 0.216767 0
17.343750 0.200643 0
17.347656 0.185129 0
17.351562 0.170293 0
17.355469 0.156191 0
17.359375 0.142866 0
17.363281 0.130348 0
17.367188 0.118657 0
17.371094 0.107800 0
17.375000 0.097776 0
17.378906 0.088575 0
17.382812 0.080179 0
17.386719 0.072561 0
17.390625 0.065693 0
17.394531 0.059538 0
17.398438 0.054058 0
17.402344 0.049211 0
17.406250 0.044957 0
17.410156 0.041250 0
17.414062 0.038047 0
17.417969 0.035306 0
17.421875 0.032984 0
17.425781 0.031040 0
17.429688 0.029438 0
17.433594 0.028139 0
17.437500 0.027111 0
17.441406 0.026321 0
17.445312 0.025740 0
17.449219 0.025343 0
17.453125 0.025104 0
17.457031 0.025002 0
17.460938 0.025018 0
17.464844 0.025134 0
17.468750 0.025335 0
17.472656 0.025607 0
17.476562 0.025940 0
17.480469 0.026322 0
17.484375 0.026745 0
17.488281 0.027202 0
17.492188 0.027685 0
17.496094 0.028190 0
17.500000 0.028712 0
17.503906 0.029247 0
17.507812 0.029801 0
17.511719 0.030397 0
17.515625 0.030989 0
17.519531 0.031576 0
17.523438 0.032159 0
17.527344 0.032738 0
17.531250 0.033312 0
17.535156 0.033882 0
17.539062 0.034447 0
17.542969 0.035008 0
17.546875 0.035565 0
17.550781 0.036117 0
17.554688 0.036665 0
17.558594 0.037209 0
17.562500 0.037748 0
17.566406 0.038283 0
17.570312 0.038813 0
17.574219 0.039339 0
17.578125 0.039861 0
17.582031 0.040378 0
17.585938 0.040891 0
17.589844 0.041400 0
17.593750 0.041904 0
17.597656 0.042405 0
17.601562 0.042900 0
17.605469 0.043392 0
17.609375 0.043879 0
17.613281 0.044362 0
17.617188 0.044841 0
17.621094 0.045315 0
17.625000 0.045785 0
17.628906 0.046251 0
17.632812 0.046713 0
17.636719 0.047170 0
17.640625 0.047624 0
17.644531 0.048073 0
17.648438 0.048519 0
17.652344 0.048961 0
17.656250 0.049400 0
17.660156 0.049837 0
17.664062 0.050271 0
17.667969 0.050705 0
17.671875 0.051139 0
17.675781 0.051577 0
17.679688 0.052021 0
17.683594 0.052476 0
17.687500 0.052947 0
17.691406 0.053443 0
17.695312 0.053974 0
17.699219 0.054554 0
17.703125 0.055201 0
17.707031 0.055938 0
17.710938 0.056794 0
17.714844 0.057805 0
17.718750 0.059012 0
17.722656 0.060470 0
17.726562 0.062237 0
17.730469 0.064386 0
17.734375 0.066995 0
17.738281 0.070153 0
17.742188 0.073957 0
17.746094 0.078506 0
17.750000 0.083904 0
17.753906 0.090252 0
17.757812 0.097642 0
17.761719 0.106154 0
17.765625 0.115851 0
17.769531 0.126765 0
17.773438 0.138899 0
17.777344 0.152214 0
17.781250 0.166625 0
17.785156 0.182001 0
17.789062 0.198158 0
17.792969 0.214861 0
17.796875 0.231827 0
17.800781 0.248733 0
17.804688 0.265222 0
17.808594 0.280916 0
17.812500 0.295429 0
17.816406 0.308382 0
17.820312 0.319421 0
17.824219 0.328230 0
17.828125 0.334548 0
17.832031 0.338178 0
17.835938 0.339001 1
17.839844 0.336981 0
17.843750 0.332163 0
17.847656 0.324675 0
17.851562 0.314724 0
17.855469 0.302578 0
17.859375 0.288563 0
17.863281 0.273042 0
17.867188 0.256402 0
17.871094 0.239035 0
17.875000 0.221327 0
17.878906 0.203641 0
17.882812 0.186304 0
17.886719 0.169601 0
17.890625 0.153766 0
17.894531 0.138973 0
17.898438 0.125331 0
17.902344 0.112871 0
17.906250 0.101518 0
17.910156 0.091062 0
17.914062 0.081101 0
17.917969 0.070997 0
17.921875 0.059851 0
17.925781 0.046555 0
17.929688 0.029971 0
17.933594 0.009249 0
17.937500 -0.015718 0
17.941406 -0.043830 0
17.945312 -0.072450 0
17.949219 -0.097360 0
17.953125 -0.113058 0
17.957031 -0.113319 2
17.960938 -0.091854 0
17.964844 -0.042951 0
17.968750 0.037879 0
17.972656 0.153022 0
17.976562 0.301467 0
17.980469 0.477197 0
17.984375 0.667889 0
17.988281 0.854862 0
17.992188 1.015126 0
17.996094 1.125576 0
18.000000 1.168338 3
18.003906 1.136315 0
18.007812 1.033751 0
18.011719 0.874864 0
18.015625 0.680572 0
18.019531 0.473644 0
18.023438 0.274398 0
18.027344 0.098112 0
18.031250 -0.045653 0
18.035156 -0.152419 0
18.039062 -0.221693 0
18.042969 -0.256021 0
18.046875 -0.260327 4
18.050781 -0.241330 0
18.054688 -0.206772 0
18.058594 -0.164420 0
18.062500 -0.121018 0
18.066406 -0.081491 0
18.070312 -0.048627 0
18.074219 -0.023256 0
18.078125 -0.004777 0
18.082031 0.008191 0
18.085938 0.017247 0
18.089844 0.023840 0
18.093750 0.029093 0
18.097656 0.033788 0
18.101562 0.038421 0
18.105469 0.043290 0
18.109375 0.048567 0
18.113281 0.054354 0
18.117188 0.060716 0
18.121094 0.067698 0
18.125000 0.075337 0
18.128906 0.083659 0
18.132812 0.092690 0
18.136719 0.102444 0
18.140625 0.112931 0
18.144531 0.124154 0
18.148438 0.136105 0
18.152344 0.148767 0
18.156250 0.162115 0
18.160156 0.176110 0
18.164062 0.190704 0
18.167969 0.205834 0
18.171875 0.221430 0
18.175781 0.237406 0
18.179688 0.253668 0
18.183594 0.270107 0
18.187500 0.286608 0
18.191406 0.303046 0
18.195312 0.319288 0
18.199219 0.335196 0
18.203125 0.350627 0
18.207031 0.365436 0
18.210938 0.379479 0
18.214844 0.392614 0
18.218750 0.404702 0
18.222656 0.415612 0
18.226562 0.425223 0
18.230469 0.433423 0
18.234375 0.440116 0
18.238281 0.445217 0
18.242188 0.448660 0
18.246094 0.450398 0
18.250000 0.450399 5
18.253906 0.448654 0
18.257812 0.445172 0
18.261719 0.439979 0
18.265625 0.433125 0
18.269531 0.424674 0
18.273438 0.414709 0
18.277344 0.403327 0
18.281250 0.390641 0
18.285156 0.376773 0
18.289062 0.361857 0
18.292969 0.346034 0
18.296875 0.329449 0
18.300781 0.312253 0
18.304688 0.294593 0
18.308594 0.276619 0
18.312500 0.258474 0
18.316406 0.240297 0
18.320312 0.222220 0
18.324219 0.204365 0
18.328125 0.186845 0
18.332031 0.169761 0
18.335938 0.153205 0
18.339844 0.137253 0
18.343750 0.121972 0
18.347656 0.107414 0
18.351562 0.093621 0
18.355469 0.080623 0
18.359375 0.068438 0
18.363281 0.057074 0
18.367188 0.046531 0
18.371094 0.036799 0
18.375000 0.027861 0
18.378906 0.019693 0
18.382812 0.012267 0
18.386719 0.005549 0
18.390625 -0.000498 0
18.394531 -0.005913 0
18.398438 -0.010736 0
18.402344 -0.015010 0
18.406250 -0.018777 0
18.410156 -0.022079 0
18.414062 -0.024956 0
18.417969 -0.027447 0
18.421875 -0.029591 0
18.425781 -0.031424 0
18.429688 -0.032978 0
18.433594 -0.034285 0
18.437500 -0.035375 0
18.441406 -0.036274 0
18.445312 -0.037005 0
18.449219 -0.037592 0
18.453125 -0.038053 0
18.457031 -0.038407 0
18.460938 -0.038668 0
18.464844 -0.038852 0
18.468750 -0.038969 0
18.472656 -0.039031 0
18.476562 -0.039047 0
18.480469 -0.039024 0
18.484375 -0.038970 0
18.488281 -0.038889 0
18.492188 -0.038788 0
18.496094 -0.038670 0
18.500000 -0.038539 0
18.503906 -0.038390 0
18.507812 -0.038199 0
18.511719 -0.038011 0
18.515625 -0.037826 0
18.519531 -0.037644 0
18.523438 -0.037464 0
18.527344 -0.037287 0
18.531250 -0.037113 0
18.535156 -0.036941 0
18.539062 -0.036772 0
18.542969 -0.036606 0
18.546875 -0.036442 0
18.550781 -0.036280 0
18.554688 -0.036121 0
18.558594 -0.035965 0
18.562500 -0.035811 0
18.566406 -0.035660 0
18.570312 -0.035511 0
18.574219 -0.035364 0
18.578125 -0.035220 0
18.582031 -0.035078 0
18.585938 -0.034939 0
18.589844 -0.034802 0
18.593750 -0.034667 0
18.597656 -0.034534 0
18.601562 -0.034404 0
18.605469 -0.034276 0
18.609375 -0.034150 0
18.613281 -0.034026 0
18.617188 -0.033904 0
18.621094 -0.033785 0
18.625000 -0.033667 0
18.628906 -0.033552 0
18.632812 -0.033438 0
18.636719 -0.033327 0
18.640625 -0.033217 0
18.644531 -0.033109 0
18.648438 -0.033002 0
18.652344 -0.032896 0
18.656250 -0.032791 0
18.660156 -0.032686 0
18.664062 -0.032580 0
18.667969 -0.032471 0
18.671875 -0.032358 0
18.675781 -0.032239 0
18.679688 -0.032109 0
18.683594 -0.031963 0
18.687500 -0.031795 0
18.691406 -0.031596 0
18.695312 -0.031355 0
18.699219 -0.031055 0
18.703125 -0.030679 0
18.707031 -0.030202 0
18.710938 -0.029593 0
18.714844 -0.028815 0
18.718750 -0.027825 0
18.722656 -0.026568 0
18.726562 -0.024984 0
18.730469 -0.023002 0
18.734375 -0.020541 0
18.738281 -0.017515 0
18.742188 -0.013830 0
18.746094 -0.009387 0
18.750000 -0.004088 0
18.753906 0.002163 0
18.757812 0.009456 0
18.761719 0.017864 0
18.765625 0.027443 0
18.769531 0.038222 0
18.773438 0.050200 0
18.777344 0.063334 0
18.781250 0.077541 0
18.785156 0.092691 0
18.789062 0.108604 0
18.792969 0.125052 0
18.796875 0.141763 0
18.800781 0.158426 0
18.804688 0.174696 0
18.808594 0.190209 0
18.812500 0.204594 0
18.816406 0.217483 0
18.820312 0.228532 0
18.824219 0.237430 0
18.828125 0.243917 0
18.832031 0.247793 0
18.835938 0.248930 1
18.839844 0.247277 0
18.843750 0.242861 0
18.847656 0.235790 0
18.851562 0.226243 0
18.855469 0.214466 0
18.859375 0.200759 0
18.863281 0.185464 0
18.867188 0.168949 0
18.871094 0.151592 0
18.875000 0.133769 0
18.878906 0.115841 0
18.882812 0.098138 0
18.886719 0.080952 0
18.890625 0.064531 0
18.894531 0.049069 0
18.898438 0.034700 0
18.902344 0.021493 0
18.906250 0.009429 0
18.910156 -0.001623 0
18.914062 -0.011946 0
18.917969 -0.022026 0
18.921875 -0.032590 0
18.925781 -0.044602 0
18.929688 -0.059173 0
18.933594 -0.077340 0
18.937500 -0.099716 0
18.941406 -0.126047 0
18.945312 -0.154806 0
18.949219 -0.182957 0
18.953125 -0.206017 0
18.957031 -0.218419 2
18.960938 -0.214074 0
18.964844 -0.186995 0
18.968750 -0.131873 0
18.972656 -0.044715 0
18.976562 0.076269 0
18.980469 0.229386 0
18.984375 0.407954 0
18.988281 0.599195 0
18.992188 0.784425 0
18.996094 0.941213 0
19.000000 1.047462 0
19.003906 1.086426 3
19.007812 1.049641 0
19.011719 0.941240 0
19.015625 0.776991 0
19.019531 0.579395 0
19.023438 0.372296 0
19.027344 0.176332 0
19.031250 0.006430 0
19.035156 -0.128603 0
19.039062 -0.225192 0
19.042969 -0.283773 0
19.046875 -0.307845 4
19.050781 -0.303287 0
19.054688 -0.277665 0
19.058594 -0.239273 0
19.062500 -0.195975 0
19.066406 -0.154116 0
19.070312 -0.117854 0
19.074219 -0.089068 0
19.078125 -0.067777 0
19.082031 -0.052824 0
19.085938 -0.042564 0
19.089844 -0.035377 0
19.093750 -0.029940 0
19.097656 -0.025306 0
19.101562 -0.020864 0
19.105469 -0.016247 0
19.109375 -0.011244 0
19.113281 -0.005732 0
19.117188 0.000363 0
19.121094 0.007093 0
19.125000 0.014496 0
19.128906 0.022604 0
19.132812 0.031440 0
19.136719 0.041024 0
19.140625 0.051365 0
19.144531 0.062467 0
19.148438 0.074321 0
19.152344 0.086911 0
19.156250 0.100207 0
19.160156 0.114169 0
19.164062 0.128744 0
19.167969 0.143866 0
19.171875 0.159458 0
19.175781 0.175427 0
19.179688 0.191671 0
19.183594 0.208074 0
19.187500 0.224512 0
19.191406 0.240850 0
19.195312 0.256946 0
19.199219 0.272652 0
19.203125 0.287818 0
19.207031 0.302289 0
19.210938 0.315915 0
19.214844 0.328547 0
19.218750 0.340042 0
19.222656 0.350268 0
19.226562 0.359101 0
19.230469 0.366431 0
19.234375 0.372164 0
19.238281 0.376224 0
19.242188 0.378551 0
19.246094 0.379108 5
19.250000 0.377877 0
19.253906 0.374861 0
19.257812 0.370085 0
19.261719 0.363593 0
19.265625 0.355451 0
19.269531 0.345742 0
19.273438 0.334567 0
19.277344 0.322042 0
19.281250 0.308296 0
19.285156 0.293469 0
19.289062 0.277708 0
19.292969 0.261167 0
19.296875 0.244004 0
19.300781 0.226375 0
19.304688 0.208436 0
19.308594 0.190339 0
19.312500 0.172230 0
19.316406 0.154245 0
19.320312 0.136513 0
19.324219 0.119150 0
19.328125 0.102259 0
19.332031 0.085935 0
19.335938 0.070254 0
19.339844 0.055282 0
19.343750 0.041072 0
19.347656 0.027662 0
19.351562 0.015079 0
19.355469 0.003338 0
19.359375 -0.007556 0
19.363281 -0.017609 0
19.367188 -0.026835 0
19.371094 -0.035254 0
19.375000 -0.042896 0
19.378906 -0.049794 0
19.382812 -0.055983 0
19.386719 -0.061506 0
19.390625 -0.066405 0
19.394531 -0.070723 0
19.398438 -0.074506 0
19.402344 -0.077796 0
19.406250 -0.080637 0
19.410156 -0.083071 0
19.414062 -0.085139 0
19.417969 -0.086878 0
19.421875 -0.088324 0
19.425781 -0.089510 0
19.429688 -0.090467 0
19.433594 -0.091224 0
19.437500 -0.091805 0
19.441406 -0.092234 0
19.445312 -0.092531 0
19.449219 -0.092716 0
19.453125 -0.092804 0
19.457031 -0.092810 0
19.460938 -0.092746 0
19.464844 -0.092624 0
19.468750 -0.092452 0
19.472656 -0.092239 0
19.476562 -0.091992 0
19.480469 -0.091716 0
19.484375 -0.091417 0
19.488281 -0.091098 0
19.492188 -0.090763 0
19.496094 -0.090377 0
19.500000 -0.089982 0
19.503906 -0.089586 0
19.507812 -0.089190 0
19.511719 -0.088793 0
19.515625 -0.088395 0
19.519531 -0.087997 0
19.523438 -0.087598 0
19.527344 -0.087199 0
19.531250 -0.086799 0
19.535156 -0.086398 0
19.539062 -0.085997 0
19.542969 -0.085595 0
19.546875 -0.085193 0
19.550781 -0.084790 0
19.554688 -0.084386 0
19.558594 -0.083982 0
19.562500 -0.083577 0
19.566406 -0.083171 0
19.570312 -0.082765 0
19.574219 -0.082358 0
19.578125 -0.081950 0
19.582031 -0.081541 0
19.585938 -0.081132 0
19.589844 -0.080722 0
19.593750 -0.080312 0
19.597656 -0.079900 0
19.601562 -0.079488 0
19.605469 -0.079075 0
19.609375 -0.078661 0
19.613281 -0.078246 0
19.617188 -0.077831 0
19.621094 -0.077415 0
19.625000 -0.076997 0
19.628906 -0.076579 0
19.632812 -0.076159 0
19.636719 -0.075738 0
19.640625 -0.075315 0
19.644531 -0.074890 0
19.648438 -0.074461 0
19.652344 -0.074028 0
19.656250 -0.073589 0
19.660156 -0.073142 0
19.664062 -0.072683 0
19.667969 -0.072208 0
19.671875 -0.071710 0
19.675781 -0.071182 0
19.679688 -0.070612 0
19.683594 -0.069985 0
19.687500 -0.069284 0
19.691406 -0.068483 0
19.695312 -0.067553 0
19.699219 -0.066457 0
19.703125 -0.065149 0
19.707031 -0.063575 0
19.710938 -0.061672 0
19.714844 -0.059367 0
19.718750 -0.056575 0
19.722656 -0.053207 0
19.726562 -0.049162 0
19.730469 -0.044339 0
19.734375 -0.038631 0
19.738281 -0.031939 0
19.742188 -0.024170 0
19.746094 -0.015245 0
19.750000 -0.005110 0
19.753906 0.006263 0
19.757812 0.018864 0
19.761719 0.032643 0
19.765625 0.047500 0
19.769531 0.063287 0
19.773438 0.079798 0
19.777344 0.096782 0
19.781250 0.113936 0
19.785156 0.130919 0
19.789062 0.147359 0
19.792969 0.162867 0
19.796875 0.177051 0
19.800781 0.189533 0
19.804688 0.199966 0
19.808594 0.208046 0
19.812500 0.213533 0
19.816406 0.216256 1
19.820312 0.216128 0
19.824219 0.213146 0
19.828125 0.207392 0
19.832031 0.199031 0
19.835938 0.188303 0
19.839844 0.175507 0
19.843750 0.160996 0
19.847656 0.145150 0
19.851562 0.128369 0
19.855469 0.111050 0
19.859375 0.093576 0
19.863281 0.076299 0
19.867188 0.059531 0
19.871094 0.043536 0
19.875000 0.028521 0
19.878906 0.014630 0
19.882812 0.001931 0
19.886719 -0.009598 0
19.890625 -0.020106 0
19.894531 -0.029911 0
19.898438 -0.039554 0
19.902344 -0.049841 0
19.906250 -0.061825 0
19.910156 -0.076683 0
19.914062 -0.095442 0
19.917969 -0.118555 0
19.921875 -0.145410 0
19.925781 -0.173915 0
19.929688 -0.200335 0
19.933594 -0.219470 0
19.937500 -0.225164 2
19.941406 -0.210969 0
19.945312 -0.170816 0
19.949219 -0.099673 0
19.953125 0.005654 0
19.957031 0.145314 0
19.960938 0.314807 0
19.964844 0.503452 0
19.968750 0.693884 0
19.972656 0.863530 0
19.976562 0.988434 0
19.980469 1.048629 3
19.984375 1.032306 0
19.988281 0.940596 0
19.992188 0.787452 0
19.996094 0.595186 0
20.000000 0.388727 0
20.003906 0.190391 0
20.007812 0.016731 0
20.011719 -0.122232 0
20.015625 -0.222183 0
20.019531 -0.283205 0
20.023438 -0.308704 4
20.027344 -0.304663 0
20.031250 -0.278891 0
20.035156 -0.240007 0
20.039062 -0.196185 0
20.042969 -0.153981 0
20.046875 -0.117623 0
20.050781 -0.088937 0
20.054688 -0.067822 0
20.058594 -0.052996 0
20.062500 -0.042732 0
20.066406 -0.035376 0
20.070312 -0.029615 0
20.074219 -0.024531 0
20.078125 -0.019547 0
20.082031 -0.014323 0
20.085938 -0.008667 0
20.089844 -0.002468 0
20.093750 0.004344 0
20.097656 0.011817 0
20.101562 0.019989 0
20.105469 0.028889 0
20.109375 0.038542 0
20.113281 0.048963 0
20.117188 0.060160 0
20.121094 0.072131 0
20.125000 0.084864 0
20.128906 0.098335 0
20.132812 0.112510 0
20.136719 0.127339 0
20.140625 0.142761 0
20.144531 0.158700 0
20.148438 0.175067 0
20.152344 0.191760 0
20.156250 0.208663 0
20.160156 0.225652 0
20.164062 0.242589 0
20.167969 0.259328 0
20.171875 0.275719 0
20.175781 0.291604 0
20.179688 0.306824 0
20.183594 0.321221 0
20.187500 0.334640 0
20.191406 0.346930 0
20.195312 0.357951 0
20.199219 0.367572 0
20.203125 0.375676 0
20.207031 0.382164 0
20.210938 0.386952 0
20.214844 0.389978 0
20.218750 0.391200 5
20.222656 0.390598 0
20.226562 0.388175 0
20.230469 0.383954 0
20.234375 0.377984 0
20.238281 0.370332 0
20.242188 0.361084 0
20.246094 0.350348 0
20.250000 0.338244 0
20.253906 0.324908 0
20.257812 0.310486 0
20.261719 0.295133 0
20.265625 0.279009 0
20.269531 0.262279 0
20.273438 0.245105 0
20.277344 0.227648 0
20.281250 0.210066 0
20.285156 0.192507 0
20.289062 0.175112 0
20.292969 0.158009 0
20.296875 0.141317 0
20.300781 0.125139 0
20.304688 0.109567 0
20.308594 0.094677 0
20.312500 0.080532 0
20.316406 0.067180 0
20.320312 0.054655 0
20.324219 0.042981 0
20.328125 0.032167 0
20.332031 0.022214 0
20.335938 0.013110 0
20.339844 0.004837 0
20.343750 -0.002631 0
20.347656 -0.009327 0
20.351562 -0.015288 0
20.355469 -0.020554 0
20.359375 -0.025170 0
20.363281 -0.029180 0
20.367188 -0.032631 0
20.371094 -0.035568 0
20.375000 -0.038037 0
20.378906 -0.040082 0
20.382812 -0.041745 0
20.386719 -0.043066 0
20.390625 -0.044083 0
20.394531 -0.044831 0
20.398438 -0.045341 0
20.402344 -0.045645 0
20.406250 -0.045769 0
20.410156 -0.045736 0
20.414062 -0.045570 0
20.417969 -0.045289 0
20.421875 -0.044911 0
20.425781 -0.044450 0
20.429688 -0.043919 0
20.433594 -0.043330 0
20.437500 -0.042693 0
20.441406 -0.042016 0
20.445312 -0.041306 0
20.449219 -0.040570 0
20.453125 -0.039811 0
20.457031 -0.039035 0
20.460938 -0.038245 0
20.464844 -0.037406 0
20.468750 -0.036561 0
20.472656 -0.035717 0
20.476562 -0.034873 0
20.480469 -0.034031 0
20.484375 -0.033190 0
20.488281 -0.032350 0
20.492188 -0.031512 0
20.496094 -0.030674 0
20.500000 -0.029838 0
20.503906 -0.029003 0
20.507812 -0.028169 0
20.511719 -0.027336 0
20.515625 -0.026505 0
20.519531 -0.025675 0
20.523438 -0.024846 0
20.527344 -0.024018 0
20.531250 -0.023192 0
20.535156 -0.022366 0
20.539062 -0.021542 0
20.542969 -0.020720 0
20.546875 -0.019898 0
20.550781 -0.019078 0
20.554688 -0.018259 0
20.558594 -0.017442 0
20.562500 -0.016626 0
20.566406 -0.015811 0
20.570312 -0.014997 0
20.574219 -0.014185 0
20.578125 -0.013374 0
20.582031 -0.012565 0
20.585938 -0.011756 0
20.589844 -0.010949 0
20.593750 -0.010143 0
20.597656 -0.009338 0
20.601562 -0.008534 0
20.605469 -0.007730 0
20.609375 -0.006926 0
20.613281 -0.006121 0
20.617188 -0.005314 0
20.621094 -0.004504 0
20.625000 -0.003687 0
20.628906 -0.002860 0
20.632812 -0.002019 0
20.636719 -0.001157 0
20.640625 -0.000265 0
20.644531 0.000668 0
20.648438 0.001659 0
20.652344 0.002727 0
20.656250 0.003898 0
20.660156 0.005206 0
20.664062 0.006689 0
20.667969 0.008397 0
20.671875 0.010389 0
20.675781 0.012734 0
20.679688 0.015510 0
20.683594 0.018806 0
20.687500 0.022722 0
20.691406 0.027360 0
20.695312 0.032830 0
20.699219 0.039239 0
20.703125 0.046690 0
20.707031 0.055274 0
20.710938 0.065062 0
20.714844 0.076100 0
20.718750 0.088399 0
20.722656 0.101929 0
20.726562 0.116611 0
20.730469 0.132314 0
20.734375 0.148853 0
20.738281 0.165985 0
20.742188 0.183416 0
20.746094 0.200806 0
20.750000 0.217777 0
20.753906 0.233931 0
20.757812 0.248858 0
20.761719 0.262159 0
20.765625 0.273460 0
20.769531 0.282435 0
20.773438 0.288813 0
20.777344 0.292401 0
20.781250 0.293089 1
20.785156 0.290857 0
20.789062 0.285776 0
20.792969 0.278006 0
20.796875 0.267785 0
20.800781 0.255422 0
20.804688 0.241275 0
20.808594 0.225741 0
20.812500 0.209233 0
20.816406 0.192167 0
20.820312 0.174939 0
20.824219 0.157916 0
20.828125 0.141421 0
20.832031 0.125726 0
20.835938 0.111040 0
20.839844 0.097507 0
20.843750 0.085189 0
20.847656 0.074046 0
20.851562 0.063900 0
20.855469 0.054384 0
20.859375 0.044883 0
20.863281 0.034500 0
20.867188 0.022091 0
20.871094 0.006442 0
20.875000 -0.013401 0
20.878906 -0.037633 0
20.882812 -0.065170 0
20.886719 -0.093268 0
20.890625 -0.117462 0
20.894531 -0.131898 2
20.898438 -0.129968 0
20.902344 -0.105049 0
20.906250 -0.051209 0
20.910156 0.036042 0
20.914062 0.158706 0
20.917969 0.314769 0
20.921875 0.496400 0
20.925781 0.688733 0
20.929688 0.870370 0
20.933594 1.016402 0
20.937500 1.103685 0
20.941406 1.116787 3
20.945312 1.053954 0
20.949219 0.924843 0
20.953125 0.747655 0
20.957031 0.545326 0
20.960938 0.340489 0
20.964844 0.151700 0
20.968750 -0.008283 0
20.972656 -0.132427 0
20.976562 -0.218404 0
20.980469 -0.267469 0
20.984375 -0.283640 4
20.988281 -0.273082 0
20.992188 -0.243400 0
20.996094 -0.202686 0
21.000000 -0.158396 0
21.003906 -0.116375 0
21.007812 -0.080308 0
21.011719 -0.051726 0
21.015625 -0.030451 0
21.019531 -0.015267 0
21.023438 -0.004551 0
21.027344 0.003255 0
21.031250 0.009412 0
21.035156 0.014816 0
21.039062 0.020049 0
21.042969 0.025460 0
21.046875 0.031251 0
21.050781 0.037541 0
21.054688 0.044402 0
21.058594 0.051884 0
21.062500 0.060025 0
21.066406 0.068855 0
21.070312 0.078399 0
21.074219 0.088675 0
21.078125 0.099694 0
21.082031 0.111458 0
21.085938 0.123962 0
21.089844 0.137190 0
21.093750 0.151115 0
21.097656 0.165699 0
21.101562 0.180893 0
21.105469 0.196635 0
21.109375 0.212851 0
21.113281 0.229455 0
21.117188 0.246348 0
21.121094 0.263421 0
21.125000 0.280554 0
21.128906 0.297620 0
21.132812 0.314480 0
21.136719 0.330994 0
21.140625 0.347013 0
21.144531 0.362391 0
21.148438 0.376977 0
21.152344 0.390628 0
21.156250 0.403201 0
21.160156 0.414563 0
21.164062 0.424591 0
21.167969 0.433172 0
21.171875 0.440209 0
21.175781 0.445620 0
21.179688 0.449339 0
21.183594 0.451322 0
21.187500 0.451541 5
21.191406 0.449991 0
21.195312 0.446685 0
21.199219 0.441658 0
21.203125 0.434963 0
21.207031 0.426672 0
21.210938 0.416876 0
21.214844 0.405678 0
21.218750 0.393198 0
21.222656 0.379567 0
21.226562 0.364923 0
21.230469 0.349413 0
21.234375 0.333190 0
21.238281 0.316405 0
21.242188 0.299212 0
21.246094 0.281761 0
21.250000 0.264199 0
21.253906 0.246663 0
21.257812 0.229286 0
21.261719 0.212189 0
21.265625 0.195481 0
21.269531 0.179262 0
21.273438 0.163617 0
21.277344 0.148619 0
21.281250 0.134330 0
21.285156 0.120797 0
21.289062 0.108056 0
21.292969 0.096131 0
21.296875 0.085033 0
21.300781 0.074767 0
21.304688 0.065325 0
21.308594 0.056692 0
21.312500 0.048848 0
21.316406 0.041763 0
21.320312 0.035405 0
21.324219 0.029739 0
21.328125 0.024722 0
21.332031 0.020316 0
21.335938 0.016475 0
21.339844 0.013158 0
21.343750 0.010322 0
21.347656 0.007923 0
21.351562 0.005922 0
21.355469 0.004279 0
21.359375 0.002957 0
21.363281 0.001922 0
21.367188 0.001140 0
21.371094 0.000581 0
21.375000 0.000219 0
21.378906 0.000027 0
21.382812 -0.000018 0
21.386719 0.000065 0
21.390625 0.000257 0
21.394531 0.000541 0
21.398438 0.000904 0
21.402344 0.001333 0
21.406250 0.001817 0
21.410156 0.002346 0
21.414062 0.002913 0
21.417969 0.003509 0
21.421875 0.004131 0
21.425781 0.004771 0
21.429688 0.005426 0
21.433594 0.006093 0
21.437500 0.006776 0
21.441406 0.007498 0
21.445312 0.008215 0
21.449219 0.008927 0
21.453125 0.009635 0
21.457031 0.010338 0
21.460938 0.011036 0
21.464844 0.011730 0
21.468750 0.012419 0
21.472656 0.013103 0
21.476562 0.013783 0
21.480469 0.014458 0
21.484375 0.015129 0
21.488281 0.015795 0
21.492188 0.016456 0
21.496094 0.017113 0
21.500000 0.017765 0
21.503906 0.018412 0
21.507812 0.019055 0
21.511719 0.019693 0
21.515625 0.020327 0
21.519531 0.020956 0
21.523438 0.021580 0
21.527344 0.022200 0
21.531250 0.022815 0
21.535156 0.023426 0
21.539062 0.024032 0
21.542969 0.024634 0
21.546875 0.025231 0
21.550781 0.025824 0
21.554688 0.026412 0
21.558594 0.026995 0
21.562500 0.027575 0
21.566406 0.028149 0
21.570312 0.028720 0
21.574219 0.029286 0
21.578125 0.029848 0
21.582031 0.030407 0
21.585938 0.030962 0
21.589844 0.031514 0
21.593750 0.032064 0
21.597656 0.032614 0
21.601562 0.033164 0
21.605469 0.033718 0
21.609375 0.034278 0
21.613281 0.034849 0
21.617188 0.035438 0
21.621094 0.036052 0
21.625000 0.036703 0
21.628906 0.037405 0
21.632812 0.038176 0
21.636719 0.039040 0
21.640625 0.040026 0
21.644531 0.041170 0
21.648438 0.042516 0
21.652344 0.044117 0
21.656250 0.046033 0
21.660156 0.048336 0
21.664062 0.051106 0
21.667969 0.054431 0
21.671875 0.058407 0
21.675781 0.063133 0
21.679688 0.068712 0
21.683594 0.075242 0
21.687500 0.082816 0
21.691406 0.091512 0
21.695312 0.101389 0
21.699219 0.112478 0
21.703125 0.124779 0
21.707031 0.138252 0
21.710938 0.152811 0
21.714844 0.168323 0
21.718750 0.184605 0
21.722656 0.201422 0
21.726562 0.218494 0
21.730469 0.235498 0
21.734375 0.252081 0
21.738281 0.267869 0
21.742188 0.282479 0
21.746094 0.295536 0
21.750000 0.306689 0
21.753906 0.315625 0
21.757812 0.322085 0
21.761719 0.325872 0
21.765625 0.326868 1
21.769531 0.325033 0
21.773438 0.320411 0
21.777344 0.313126 0
21.781250 0.303377 0
21.785156 0.291431 0
21.789062 0.277607 0
21.792969 0.262262 0
21.796875 0.245778 0
21.800781 0.228546 0
21.804688 0.210947 0
21.808594 0.193343 0
21.812500 0.176062 0
21.816406 0.159389 0
21.820312 0.143561 0
21.824219 0.128756 0
21.828125 0.115090 0
21.832031 0.102600 0
21.835938 0.091226 0
21.839844 0.080777 0
21.843750 0.070881 0
21.847656 0.060937 0
21.851562 0.050085 0
21.855469 0.037249 0
21.859375 0.021289 0
21.863281 0.001299 0
21.867188 -0.022966 0
21.871094 -0.050625 0
21.875000 -0.079314 0
21.878906 -0.105096 0
21.882812 -0.122700 0
21.886719 -0.126034 2
21.890625 -0.108836 0
21.894531 -0.065299 0
21.898438 0.009303 0
21.902344 0.117814 0
21.906250 0.260008 0
21.910156 0.431042 0
21.914062 0.620042 0
21.917969 0.809734 0
21.921875 0.977969 0
21.925781 1.101446 0
21.929688 1.160843 3
21.933594 1.147481 0
21.937500 1.063072 0
21.941406 0.918798 0
21.945312 0.733268 0
21.949219 0.528215 0
21.953125 0.324242 0
21.957031 0.137858 0
21.960938 -0.019731 0
21.964844 -0.142406 0
21.968750 -0.228202 0
21.972656 -0.278348 0
21.976562 -0.296550 4
21.980469 -0.288466 0
21.984375 -0.261105 0
21.988281 -0.222013 0
21.992188 -0.178308 0
21.996094 -0.135782 0
22.000000 -0.098349 0
22.003906 -0.067931 0
22.007812 -0.044773 0
22.011719 -0.027984 0
22.015625 -0.016128 0
22.019531 -0.007688 0
22.023438 -0.001351 0
22.027344 0.003879 0
22.031250 0.008681 0
22.035156 0.013488 0
22.039062 0.018558 0
22.042969 0.024044 0
22.046875 0.030036 0
22.050781 0.036593 0
22.054688 0.043758 0
22.058594 0.051565 0
22.062500 0.060041 0
22.066406 0.069207 0
22.070312 0.079078 0
22.074219 0.089665 0
22.078125 0.100970 0
22.082031 0.112985 0
22.085938 0.125697 0
22.089844 0.139081 0
22.093750 0.153103 0
22.097656 0.167717 0
22.101562 0.182867 0
22.105469 0.198487 0
22.109375 0.214497 0
22.113281 0.230810 0
22.117188 0.247326 0
22.121094 0.263936 0
22.125000 0.280524 0
22.128906 0.296965 0
22.132812 0.313129 0
22.136719 0.328880 0
22.140625 0.344082 0
22.144531 0.358594 0
22.148438 0.372281 0
22.152344 0.385008 0
22.156250 0.396647 0
22.160156 0.407076 0
22.164062 0.416183 0
22.167969 0.423867 0
22.171875 0.430041 0
22.175781 0.434632 0
22.179688 0.437583 0
22.183594 0.438853 5
22.187500 0.438420 0
22.191406 0.436280 0
22.195312 0.432446 0
22.199219 0.426950 0
22.203125 0.419842 0
22.207031 0.411187 0
22.210938 0.401068 0
22.214844 0.389581 0
22.218750 0.376835 0
22.222656 0.362948 0
22.226562 0.348049 0
22.230469 0.332273 0
22.234375 0.315760 0
22.238281 0.298653 0
22.242188 0.281094 0
22.246094 0.263225 0
22.250000 0.245184 0
22.253906 0.227104 0
22.257812 0.209111 0
22.261719 0.191323 0
22.265625 0.173850 0
22.269531 0.156790 0
22.273438 0.140231 0
22.277344 0.124250 0
22.281250 0.108911 0
22.285156 0.094269 0
22.289062 0.080367 0
22.292969 0.067234 0
22.296875 0.054892 0
22.300781 0.043353 0
22.304688 0.032617 0
22.308594 0.022679 0
22.312500 0.013524 0
22.316406 0.005134 0
22.320312 -0.002518 0
22.324219 -0.009462 0
22.328125 -0.015732 0
22.332031 -0.021364 0
22.335938 -0.026396 0
22.339844 -0.030868 0
22.343750 -0.034821 0
22.347656 -0.038295 0
22.351562 -0.041329 0
22.355469 -0.043962 0
22.359375 -0.046231 0
22.363281 -0.048172 0
22.367188 -0.049818 0
22.371094 -0.051201 0
22.375000 -0.052350 0
22.378906 -0.053293 0
22.382812 -0.054054 0
22.386719 -0.054656 0
22.390625 -0.055121 0
